'Elapsed time','I','II','III','AVR','AVL','AVF','V1','V2','V3','V4','V5','V6'
'hh:mm:ss.mmm','mV','mV','mV','mV','mV','mV','mV','mV','mV','mV','mV','mV'
'0:00.000',-0.078,-0.202,-0.124,0.141,0.023,-0.164,-0.003,-0.313,-0.319,-0.272,-0.237,-0.172
'0:00.001',-0.031,-0.075,-0.044,0.053,0.006,-0.059,0.006,-0.138,-0.156,-0.131,-0.119,-0.087
'0:00.002',-0.031,-0.074,-0.042,0.052,0.006,-0.058,0.009,-0.128,-0.150,-0.125,-0.112,-0.084
'0:00.003',-0.034,-0.078,-0.044,0.056,0.004,-0.061,0.013,-0.131,-0.156,-0.131,-0.119,-0.087
'0:00.004',-0.033,-0.080,-0.047,0.057,0.007,-0.064,0.016,-0.134,-0.150,-0.134,-0.116,-0.084
'0:00.005',-0.034,-0.081,-0.047,0.058,0.006,-0.064,0.019,-0.138,-0.150,-0.131,-0.112,-0.081
'0:00.006',-0.038,-0.086,-0.049,0.062,0.006,-0.067,0.019,-0.128,-0.156,-0.131,-0.112,-0.081
'0:00.007',-0.044,-0.084,-0.041,0.064,-0.002,-0.063,0.019,-0.125,-0.156,-0.137,-0.112,-0.081
'0:00.008',-0.042,-0.086,-0.044,0.064,0.001,-0.065,0.016,-0.134,-0.156,-0.144,-0.119,-0.087
'0:00.009',-0.041,-0.084,-0.044,0.063,0.001,-0.064,0.013,-0.131,-0.156,-0.144,-0.119,-0.094
'0:00.010',-0.039,-0.089,-0.050,0.064,0.005,-0.070,0.016,-0.131,-0.153,-0.141,-0.119,-0.094
'0:00.011',-0.041,-0.088,-0.047,0.064,0.003,-0.067,0.019,-0.138,-0.156,-0.137,-0.119,-0.087
'0:00.012',-0.041,-0.086,-0.046,0.064,0.002,-0.066,0.019,-0.134,-0.153,-0.137,-0.116,-0.087
'0:00.013',-0.044,-0.084,-0.041,0.064,-0.002,-0.063,0.019,-0.138,-0.150,-0.144,-0.119,-0.087
'0:00.014',-0.044,-0.084,-0.041,0.064,-0.002,-0.063,0.016,-0.144,-0.153,-0.144,-0.119,-0.091
'0:00.015',-0.044,-0.084,-0.041,0.064,-0.002,-0.063,0.013,-0.144,-0.156,-0.137,-0.119,-0.087
'0:00.016',-0.044,-0.084,-0.041,0.064,-0.002,-0.063,0.013,-0.138,-0.162,-0.144,-0.119,-0.087
'0:00.017',-0.047,-0.084,-0.037,0.066,-0.005,-0.061,0.013,-0.138,-0.162,-0.144,-0.119,-0.087
'0:00.018',-0.044,-0.080,-0.036,0.062,-0.004,-0.058,0.013,-0.141,-0.162,-0.144,-0.122,-0.091
'0:00.019',-0.044,-0.078,-0.034,0.061,-0.005,-0.056,0.013,-0.138,-0.162,-0.144,-0.119,-0.087
'0:00.020',-0.039,-0.075,-0.036,0.058,-0.002,-0.056,0.009,-0.138,-0.166,-0.144,-0.122,-0.087
'0:00.021',-0.034,-0.072,-0.037,0.053,0.001,-0.055,0.006,-0.138,-0.169,-0.144,-0.125,-0.087
'0:00.022',-0.033,-0.071,-0.037,0.052,0.002,-0.054,0.009,-0.134,-0.162,-0.137,-0.122,-0.084
'0:00.023',-0.034,-0.072,-0.037,0.053,0.001,-0.055,0.013,-0.138,-0.162,-0.137,-0.125,-0.081
'0:00.024',-0.038,-0.072,-0.034,0.055,-0.002,-0.053,0.009,-0.134,-0.159,-0.137,-0.125,-0.087
'0:00.025',-0.038,-0.072,-0.034,0.055,-0.002,-0.053,0.006,-0.138,-0.162,-0.137,-0.125,-0.087
'0:00.026',-0.036,-0.074,-0.037,0.055,0.001,-0.056,0.009,-0.138,-0.156,-0.137,-0.128,-0.084
'0:00.027',-0.038,-0.075,-0.037,0.056,0.000,-0.056,0.013,-0.131,-0.156,-0.137,-0.125,-0.087
'0:00.028',-0.041,-0.075,-0.034,0.058,-0.003,-0.055,0.016,-0.138,-0.150,-0.134,-0.122,-0.084
'0:00.029',-0.044,-0.081,-0.037,0.063,-0.003,-0.059,0.019,-0.138,-0.150,-0.131,-0.125,-0.087
'0:00.030',-0.046,-0.081,-0.036,0.064,-0.005,-0.059,0.019,-0.128,-0.150,-0.128,-0.122,-0.081
'0:00.031',-0.044,-0.084,-0.041,0.064,-0.002,-0.063,0.019,-0.125,-0.150,-0.131,-0.119,-0.087
'0:00.032',-0.044,-0.089,-0.045,0.066,0.001,-0.067,0.016,-0.128,-0.153,-0.134,-0.122,-0.091
'0:00.033',-0.044,-0.091,-0.047,0.068,0.001,-0.069,0.013,-0.131,-0.156,-0.137,-0.119,-0.094
'0:00.034',-0.044,-0.086,-0.042,0.065,-0.001,-0.064,0.013,-0.134,-0.156,-0.131,-0.116,-0.094
'0:00.035',-0.044,-0.084,-0.041,0.064,-0.002,-0.063,0.013,-0.138,-0.156,-0.131,-0.112,-0.094
'0:00.036',-0.046,-0.083,-0.037,0.064,-0.004,-0.061,0.013,-0.138,-0.156,-0.131,-0.119,-0.091
'0:00.037',-0.044,-0.078,-0.034,0.061,-0.005,-0.056,0.013,-0.138,-0.156,-0.137,-0.119,-0.094
'0:00.038',-0.044,-0.078,-0.034,0.061,-0.005,-0.056,0.013,-0.141,-0.159,-0.134,-0.122,-0.094
'0:00.039',-0.044,-0.081,-0.037,0.063,-0.003,-0.059,0.013,-0.138,-0.156,-0.131,-0.125,-0.094
'0:00.040',-0.044,-0.084,-0.041,0.064,-0.002,-0.063,0.013,-0.138,-0.153,-0.134,-0.122,-0.094
'0:00.041',-0.044,-0.081,-0.037,0.063,-0.003,-0.059,0.013,-0.138,-0.150,-0.137,-0.125,-0.094
'0:00.042',-0.046,-0.078,-0.033,0.062,-0.007,-0.056,0.016,-0.141,-0.156,-0.134,-0.125,-0.100
'0:00.043',-0.044,-0.078,-0.034,0.061,-0.005,-0.056,0.013,-0.138,-0.156,-0.131,-0.125,-0.100
'0:00.044',-0.039,-0.074,-0.034,0.057,-0.003,-0.054,0.019,-0.134,-0.153,-0.134,-0.122,-0.091
'0:00.045',-0.034,-0.072,-0.037,0.053,0.001,-0.055,0.019,-0.131,-0.150,-0.131,-0.119,-0.087
'0:00.046',-0.034,-0.072,-0.037,0.053,0.001,-0.055,0.013,-0.128,-0.147,-0.131,-0.116,-0.091
'0:00.047',-0.034,-0.072,-0.037,0.053,0.001,-0.055,0.013,-0.131,-0.150,-0.131,-0.112,-0.087
'0:00.048',-0.036,-0.069,-0.033,0.052,-0.001,-0.051,0.013,-0.134,-0.150,-0.131,-0.119,-0.091
'0:00.049',-0.038,-0.072,-0.034,0.055,-0.002,-0.053,0.013,-0.138,-0.150,-0.131,-0.112,-0.094
'0:00.050',-0.038,-0.073,-0.036,0.056,-0.001,-0.054,0.013,-0.134,-0.150,-0.128,-0.116,-0.094
'0:00.051',-0.038,-0.075,-0.037,0.056,0.000,-0.056,0.013,-0.131,-0.150,-0.125,-0.112,-0.094
'0:00.052',-0.041,-0.072,-0.031,0.056,-0.005,-0.052,0.016,-0.131,-0.150,-0.134,-0.116,-0.094
'0:00.053',-0.044,-0.072,-0.028,0.058,-0.008,-0.050,0.019,-0.131,-0.150,-0.131,-0.112,-0.094
'0:00.054',-0.042,-0.071,-0.028,0.057,-0.008,-0.049,0.016,-0.131,-0.150,-0.128,-0.116,-0.094
'0:00.055',-0.038,-0.069,-0.031,0.053,-0.003,-0.050,0.013,-0.131,-0.150,-0.125,-0.119,-0.094
'0:00.056',-0.038,-0.076,-0.039,0.057,0.001,-0.058,0.013,-0.128,-0.150,-0.131,-0.116,-0.091
'0:00.057',-0.038,-0.078,-0.041,0.058,0.001,-0.059,0.013,-0.131,-0.150,-0.131,-0.112,-0.087
'0:00.058',-0.041,-0.078,-0.037,0.059,-0.002,-0.058,0.013,-0.131,-0.147,-0.134,-0.119,-0.087
'0:00.059',-0.041,-0.078,-0.037,0.059,-0.002,-0.058,0.013,-0.131,-0.144,-0.137,-0.119,-0.087
'0:00.060',-0.041,-0.081,-0.041,0.061,0.000,-0.061,0.016,-0.128,-0.150,-0.131,-0.119,-0.087
'0:00.061',-0.047,-0.081,-0.034,0.064,-0.006,-0.058,0.019,-0.125,-0.150,-0.125,-0.112,-0.087
'0:00.062',-0.048,-0.078,-0.030,0.063,-0.009,-0.054,0.019,-0.128,-0.150,-0.128,-0.112,-0.087
'0:00.063',-0.050,-0.075,-0.025,0.063,-0.012,-0.050,0.019,-0.131,-0.150,-0.131,-0.119,-0.087
'0:00.064',-0.047,-0.075,-0.028,0.061,-0.009,-0.052,0.019,-0.128,-0.150,-0.131,-0.116,-0.087
'0:00.065',-0.044,-0.075,-0.031,0.059,-0.006,-0.053,0.019,-0.125,-0.150,-0.131,-0.112,-0.094
'0:00.066',-0.041,-0.075,-0.034,0.058,-0.003,-0.055,0.016,-0.128,-0.150,-0.128,-0.116,-0.087
'0:00.067',-0.038,-0.075,-0.037,0.056,0.000,-0.056,0.013,-0.131,-0.150,-0.125,-0.119,-0.087
'0:00.068',-0.041,-0.071,-0.030,0.056,-0.006,-0.051,0.016,-0.131,-0.147,-0.125,-0.112,-0.087
'0:00.069',-0.038,-0.066,-0.028,0.052,-0.005,-0.047,0.019,-0.131,-0.144,-0.125,-0.119,-0.087
'0:00.070',-0.039,-0.066,-0.026,0.052,-0.007,-0.046,0.019,-0.131,-0.147,-0.125,-0.119,-0.084
'0:00.071',-0.034,-0.066,-0.031,0.050,-0.002,-0.049,0.019,-0.131,-0.150,-0.125,-0.119,-0.081
'0:00.072',-0.033,-0.066,-0.033,0.049,-0.001,-0.049,0.016,-0.128,-0.150,-0.128,-0.119,-0.084
'0:00.073',-0.034,-0.066,-0.031,0.050,-0.002,-0.049,0.013,-0.131,-0.150,-0.131,-0.119,-0.087
'0:00.074',-0.034,-0.067,-0.033,0.051,-0.001,-0.050,0.013,-0.128,-0.147,-0.128,-0.116,-0.081
'0:00.075',-0.031,-0.069,-0.037,0.050,0.003,-0.053,0.013,-0.131,-0.150,-0.131,-0.119,-0.081
'0:00.076',-0.033,-0.066,-0.033,0.049,0.000,-0.049,0.016,-0.122,-0.147,-0.128,-0.116,-0.084
'0:00.077',-0.034,-0.069,-0.034,0.052,0.000,-0.052,0.019,-0.125,-0.144,-0.125,-0.112,-0.087
'0:00.078',-0.034,-0.069,-0.034,0.052,0.000,-0.052,0.019,-0.131,-0.144,-0.122,-0.112,-0.084
'0:00.079',-0.034,-0.069,-0.034,0.052,0.000,-0.052,0.019,-0.131,-0.150,-0.125,-0.112,-0.081
'0:00.080',-0.034,-0.070,-0.036,0.052,0.001,-0.053,0.019,-0.128,-0.141,-0.128,-0.112,-0.084
'0:00.081',-0.034,-0.072,-0.037,0.053,0.001,-0.055,0.019,-0.131,-0.144,-0.125,-0.112,-0.081
'0:00.082',-0.038,-0.076,-0.039,0.057,0.001,-0.058,0.019,-0.131,-0.144,-0.128,-0.119,-0.084
'0:00.083',-0.044,-0.081,-0.037,0.063,-0.003,-0.059,0.019,-0.131,-0.144,-0.125,-0.119,-0.087
'0:00.084',-0.044,-0.080,-0.036,0.062,-0.004,-0.058,0.016,-0.131,-0.144,-0.125,-0.112,-0.081
'0:00.085',-0.044,-0.078,-0.034,0.061,-0.005,-0.056,0.013,-0.131,-0.144,-0.125,-0.112,-0.087
'0:00.086',-0.039,-0.077,-0.037,0.058,-0.001,-0.058,0.016,-0.131,-0.144,-0.128,-0.112,-0.081
'0:00.087',-0.041,-0.072,-0.031,0.056,-0.005,-0.052,0.019,-0.131,-0.144,-0.131,-0.112,-0.081
'0:00.088',-0.042,-0.075,-0.033,0.059,-0.004,-0.054,0.016,-0.131,-0.150,-0.128,-0.119,-0.084
'0:00.089',-0.044,-0.078,-0.034,0.061,-0.005,-0.056,0.019,-0.131,-0.150,-0.125,-0.119,-0.087
'0:00.090',-0.041,-0.078,-0.037,0.059,-0.002,-0.058,0.019,-0.131,-0.150,-0.125,-0.112,-0.084
'0:00.091',-0.038,-0.078,-0.041,0.058,0.001,-0.059,0.019,-0.131,-0.156,-0.125,-0.112,-0.087
'0:00.092',-0.038,-0.072,-0.034,0.055,-0.002,-0.053,0.019,-0.131,-0.150,-0.125,-0.112,-0.078
'0:00.093',-0.034,-0.069,-0.034,0.052,0.000,-0.052,0.019,-0.131,-0.150,-0.125,-0.112,-0.075
'0:00.094',-0.033,-0.072,-0.039,0.052,0.002,-0.056,0.025,-0.131,-0.159,-0.125,-0.116,-0.081
'0:00.095',-0.034,-0.072,-0.037,0.053,0.001,-0.055,0.025,-0.131,-0.162,-0.125,-0.112,-0.081
'0:00.096',-0.041,-0.075,-0.034,0.058,-0.003,-0.055,0.025,-0.131,-0.159,-0.125,-0.116,-0.078
'0:00.097',-0.041,-0.078,-0.037,0.059,-0.002,-0.058,0.031,-0.131,-0.156,-0.125,-0.112,-0.075
'0:00.098',-0.044,-0.079,-0.036,0.062,-0.004,-0.058,0.025,-0.131,-0.156,-0.125,-0.119,-0.078
'0:00.099',-0.047,-0.081,-0.034,0.064,-0.006,-0.058,0.025,-0.131,-0.150,-0.125,-0.112,-0.075
'0:00.100',-0.039,-0.078,-0.039,0.059,-0.001,-0.059,0.022,-0.131,-0.156,-0.128,-0.116,-0.078
'0:00.101',-0.038,-0.075,-0.037,0.056,0.000,-0.056,0.019,-0.131,-0.150,-0.125,-0.119,-0.081
'0:00.102',-0.034,-0.072,-0.037,0.053,0.001,-0.055,0.016,-0.134,-0.156,-0.125,-0.119,-0.081
'0:00.103',-0.034,-0.069,-0.034,0.052,0.000,-0.052,0.013,-0.138,-0.156,-0.131,-0.119,-0.081
'0:00.104',-0.034,-0.073,-0.039,0.054,0.002,-0.056,0.013,-0.138,-0.156,-0.134,-0.119,-0.087
'0:00.105',-0.034,-0.081,-0.047,0.058,0.006,-0.064,0.013,-0.138,-0.156,-0.137,-0.119,-0.087
'0:00.106',-0.041,-0.086,-0.045,0.063,0.002,-0.066,0.009,-0.141,-0.150,-0.131,-0.116,-0.081
'0:00.107',-0.044,-0.091,-0.047,0.068,0.001,-0.069,0.006,-0.144,-0.156,-0.137,-0.112,-0.081
'0:00.108',-0.047,-0.088,-0.041,0.068,-0.003,-0.064,0.009,-0.141,-0.156,-0.131,-0.116,-0.087
'0:00.109',-0.047,-0.088,-0.041,0.068,-0.003,-0.064,0.013,-0.138,-0.156,-0.137,-0.119,-0.087
'0:00.110',-0.047,-0.091,-0.044,0.069,-0.002,-0.067,0.019,-0.141,-0.159,-0.137,-0.119,-0.081
'0:00.111',-0.047,-0.094,-0.047,0.071,0.000,-0.071,0.019,-0.144,-0.156,-0.137,-0.119,-0.087
'0:00.112',-0.044,-0.088,-0.044,0.066,0.000,-0.066,0.013,-0.134,-0.162,-0.137,-0.119,-0.078
'0:00.113',-0.044,-0.084,-0.041,0.064,-0.002,-0.063,0.013,-0.138,-0.162,-0.137,-0.119,-0.081
'0:00.114',-0.042,-0.084,-0.042,0.064,-0.001,-0.063,0.013,-0.138,-0.162,-0.137,-0.119,-0.081
'0:00.115',-0.041,-0.084,-0.044,0.063,0.001,-0.064,0.013,-0.138,-0.162,-0.137,-0.119,-0.081
'0:00.116',-0.038,-0.084,-0.047,0.061,0.004,-0.066,0.013,-0.141,-0.162,-0.137,-0.119,-0.081
'0:00.117',-0.038,-0.084,-0.047,0.061,0.004,-0.066,0.013,-0.144,-0.162,-0.137,-0.119,-0.081
'0:00.118',-0.034,-0.077,-0.042,0.056,0.004,-0.060,0.016,-0.144,-0.169,-0.141,-0.119,-0.084
'0:00.119',-0.034,-0.078,-0.044,0.056,0.004,-0.061,0.019,-0.144,-0.175,-0.144,-0.119,-0.087
'0:00.120',-0.036,-0.079,-0.043,0.058,0.003,-0.061,0.019,-0.150,-0.175,-0.144,-0.122,-0.081
'0:00.121',-0.034,-0.081,-0.047,0.058,0.006,-0.064,0.019,-0.150,-0.175,-0.144,-0.125,-0.081
'0:00.122',-0.034,-0.088,-0.053,0.061,0.009,-0.071,0.019,-0.144,-0.175,-0.147,-0.119,-0.084
'0:00.123',-0.034,-0.088,-0.053,0.061,0.009,-0.071,0.013,-0.144,-0.175,-0.150,-0.125,-0.087
'0:00.124',-0.038,-0.088,-0.050,0.063,0.006,-0.069,0.016,-0.150,-0.175,-0.153,-0.125,-0.094
'0:00.125',-0.041,-0.088,-0.047,0.064,0.003,-0.067,0.019,-0.150,-0.175,-0.150,-0.125,-0.087
'0:00.126',-0.041,-0.089,-0.048,0.065,0.004,-0.069,0.013,-0.156,-0.175,-0.150,-0.125,-0.087
'0:00.127',-0.038,-0.091,-0.053,0.064,0.007,-0.072,0.013,-0.156,-0.175,-0.156,-0.125,-0.087
'0:00.128',-0.042,-0.095,-0.053,0.069,0.006,-0.074,0.016,-0.159,-0.175,-0.153,-0.128,-0.087
'0:00.129',-0.047,-0.103,-0.056,0.075,0.004,-0.080,0.013,-0.156,-0.181,-0.156,-0.131,-0.087
'0:00.130',-0.044,-0.104,-0.061,0.074,0.008,-0.083,0.016,-0.156,-0.181,-0.156,-0.131,-0.087
'0:00.131',-0.047,-0.106,-0.059,0.077,0.006,-0.083,0.013,-0.156,-0.181,-0.156,-0.131,-0.087
'0:00.132',-0.046,-0.102,-0.056,0.074,0.005,-0.079,0.013,-0.163,-0.181,-0.162,-0.131,-0.091
'0:00.133',-0.041,-0.100,-0.059,0.071,0.009,-0.080,0.013,-0.163,-0.181,-0.162,-0.131,-0.094
'0:00.134',-0.042,-0.094,-0.051,0.068,0.004,-0.073,0.009,-0.172,-0.181,-0.162,-0.134,-0.097
'0:00.135',-0.041,-0.094,-0.053,0.068,0.006,-0.074,0.013,-0.175,-0.181,-0.162,-0.137,-0.100
'0:00.136',-0.039,-0.095,-0.056,0.067,0.009,-0.076,0.013,-0.172,-0.178,-0.162,-0.137,-0.106
'0:00.137',-0.041,-0.097,-0.056,0.069,0.007,-0.077,0.013,-0.175,-0.181,-0.162,-0.137,-0.106
'0:00.138',-0.042,-0.100,-0.058,0.071,0.008,-0.079,0.013,-0.175,-0.181,-0.159,-0.141,-0.100
'0:00.139',-0.044,-0.103,-0.059,0.074,0.007,-0.081,0.013,-0.181,-0.181,-0.156,-0.137,-0.100
'0:00.140',-0.044,-0.100,-0.056,0.072,0.006,-0.078,0.016,-0.172,-0.178,-0.162,-0.141,-0.097
'0:00.141',-0.044,-0.097,-0.053,0.071,0.004,-0.075,0.013,-0.175,-0.181,-0.162,-0.144,-0.100
'0:00.142',-0.042,-0.100,-0.057,0.071,0.007,-0.079,0.016,-0.178,-0.184,-0.159,-0.141,-0.103
'0:00.143',-0.044,-0.097,-0.053,0.071,0.004,-0.075,0.013,-0.175,-0.187,-0.156,-0.137,-0.100
'0:00.144',-0.045,-0.100,-0.055,0.073,0.005,-0.078,0.009,-0.175,-0.181,-0.156,-0.137,-0.100
'0:00.145',-0.047,-0.106,-0.059,0.077,0.006,-0.083,0.006,-0.175,-0.181,-0.156,-0.137,-0.100
'0:00.146',-0.046,-0.103,-0.057,0.074,0.006,-0.081,0.006,-0.172,-0.191,-0.162,-0.141,-0.097
'0:00.147',-0.044,-0.103,-0.059,0.074,0.007,-0.081,0.006,-0.175,-0.194,-0.169,-0.144,-0.094
'0:00.148',-0.048,-0.103,-0.055,0.076,0.003,-0.079,0.006,-0.175,-0.197,-0.172,-0.141,-0.094
'0:00.149',-0.047,-0.103,-0.056,0.075,0.004,-0.080,0.006,-0.175,-0.200,-0.175,-0.137,-0.094
'0:00.150',-0.045,-0.103,-0.058,0.074,0.006,-0.081,-0.003,-0.175,-0.194,-0.172,-0.141,-0.100
'0:00.151',-0.047,-0.103,-0.056,0.075,0.004,-0.080,0.000,-0.175,-0.194,-0.175,-0.137,-0.094
'0:00.152',-0.048,-0.106,-0.058,0.077,0.005,-0.083,0.000,-0.172,-0.200,-0.175,-0.144,-0.097
'0:00.153',-0.050,-0.109,-0.059,0.080,0.004,-0.084,0.000,-0.175,-0.206,-0.175,-0.144,-0.106
'0:00.154',-0.053,-0.112,-0.059,0.083,0.003,-0.086,0.000,-0.178,-0.206,-0.175,-0.150,-0.103
'0:00.155',-0.050,-0.109,-0.059,0.080,0.004,-0.084,0.000,-0.181,-0.206,-0.175,-0.150,-0.100
'0:00.156',-0.051,-0.112,-0.061,0.082,0.005,-0.087,0.003,-0.181,-0.206,-0.172,-0.150,-0.100
'0:00.157',-0.053,-0.109,-0.056,0.081,0.001,-0.083,0.000,-0.181,-0.206,-0.175,-0.150,-0.100
'0:00.158',-0.050,-0.111,-0.061,0.081,0.006,-0.086,0.000,-0.181,-0.203,-0.175,-0.153,-0.100
'0:00.159',-0.047,-0.109,-0.062,0.078,0.007,-0.086,0.000,-0.181,-0.206,-0.175,-0.156,-0.100
'0:00.160',-0.046,-0.108,-0.062,0.077,0.008,-0.086,0.000,-0.184,-0.206,-0.175,-0.156,-0.100
'0:00.161',-0.044,-0.109,-0.066,0.077,0.011,-0.088,0.000,-0.187,-0.206,-0.175,-0.156,-0.100
'0:00.162',-0.046,-0.109,-0.064,0.077,0.009,-0.087,0.006,-0.194,-0.206,-0.175,-0.162,-0.100
'0:00.163',-0.044,-0.109,-0.066,0.077,0.011,-0.088,0.006,-0.194,-0.206,-0.175,-0.162,-0.100
'0:00.164',-0.044,-0.108,-0.064,0.076,0.010,-0.086,0.000,-0.194,-0.212,-0.178,-0.156,-0.109
'0:00.165',-0.044,-0.109,-0.066,0.077,0.011,-0.088,0.006,-0.194,-0.206,-0.181,-0.150,-0.106
'0:00.166',-0.046,-0.109,-0.064,0.077,0.009,-0.087,0.009,-0.191,-0.212,-0.175,-0.150,-0.106
'0:00.167',-0.044,-0.109,-0.066,0.077,0.011,-0.088,0.013,-0.194,-0.212,-0.175,-0.150,-0.106
'0:00.168',-0.044,-0.106,-0.062,0.075,0.009,-0.084,0.009,-0.194,-0.212,-0.175,-0.147,-0.103
'0:00.169',-0.041,-0.103,-0.062,0.072,0.011,-0.083,0.006,-0.194,-0.212,-0.175,-0.144,-0.100
'0:00.170',-0.039,-0.104,-0.066,0.072,0.013,-0.085,0.003,-0.200,-0.219,-0.175,-0.153,-0.106
'0:00.171',-0.041,-0.103,-0.062,0.072,0.011,-0.083,0.000,-0.194,-0.212,-0.175,-0.156,-0.106
'0:00.172',-0.041,-0.108,-0.067,0.074,0.013,-0.088,0.003,-0.194,-0.216,-0.175,-0.156,-0.106
'0:00.173',-0.041,-0.109,-0.069,0.075,0.014,-0.089,0.006,-0.200,-0.212,-0.181,-0.156,-0.106
'0:00.174',-0.044,-0.109,-0.066,0.077,0.011,-0.088,-0.003,-0.197,-0.222,-0.181,-0.156,-0.106
'0:00.175',-0.047,-0.112,-0.066,0.080,0.009,-0.089,0.000,-0.194,-0.219,-0.181,-0.156,-0.106
'0:00.176',-0.051,-0.114,-0.062,0.082,0.006,-0.088,0.000,-0.197,-0.219,-0.181,-0.156,-0.106
'0:00.177',-0.053,-0.119,-0.066,0.086,0.006,-0.093,0.000,-0.200,-0.219,-0.181,-0.156,-0.106
'0:00.178',-0.049,-0.120,-0.071,0.084,0.011,-0.096,0.003,-0.200,-0.222,-0.181,-0.159,-0.109
'0:00.179',-0.050,-0.122,-0.072,0.086,0.011,-0.097,0.000,-0.200,-0.219,-0.181,-0.162,-0.113
'0:00.180',-0.047,-0.122,-0.075,0.084,0.014,-0.099,0.000,-0.197,-0.216,-0.184,-0.162,-0.113
'0:00.181',-0.050,-0.122,-0.072,0.086,0.011,-0.097,0.000,-0.194,-0.212,-0.181,-0.162,-0.119
'0:00.182',-0.050,-0.124,-0.074,0.087,0.012,-0.099,0.003,-0.200,-0.209,-0.181,-0.162,-0.109
'0:00.183',-0.050,-0.122,-0.072,0.086,0.011,-0.097,0.000,-0.200,-0.212,-0.181,-0.162,-0.113
'0:00.184',-0.056,-0.121,-0.064,0.089,0.004,-0.093,0.003,-0.200,-0.212,-0.181,-0.166,-0.113
'0:00.185',-0.059,-0.119,-0.059,0.089,0.000,-0.089,0.000,-0.200,-0.212,-0.181,-0.162,-0.113
'0:00.186',-0.059,-0.122,-0.062,0.091,0.001,-0.093,0.000,-0.206,-0.212,-0.181,-0.162,-0.113
'0:00.187',-0.056,-0.122,-0.066,0.089,0.004,-0.094,0.006,-0.206,-0.212,-0.187,-0.162,-0.113
'0:00.188',-0.055,-0.121,-0.066,0.088,0.005,-0.093,0.006,-0.200,-0.212,-0.178,-0.162,-0.113
'0:00.189',-0.053,-0.119,-0.066,0.086,0.006,-0.093,0.006,-0.200,-0.212,-0.181,-0.162,-0.113
'0:00.190',-0.053,-0.116,-0.062,0.084,0.004,-0.089,0.006,-0.197,-0.212,-0.184,-0.166,-0.113
'0:00.191',-0.050,-0.116,-0.066,0.083,0.007,-0.091,0.000,-0.194,-0.212,-0.187,-0.162,-0.113
'0:00.192',-0.046,-0.112,-0.067,0.079,0.011,-0.090,0.006,-0.197,-0.212,-0.184,-0.156,-0.109
'0:00.193',-0.044,-0.109,-0.066,0.077,0.011,-0.088,0.006,-0.194,-0.219,-0.181,-0.162,-0.113
'0:00.194',-0.044,-0.109,-0.066,0.077,0.011,-0.088,0.000,-0.200,-0.222,-0.194,-0.162,-0.113
'0:00.195',-0.044,-0.109,-0.066,0.077,0.011,-0.088,0.006,-0.200,-0.225,-0.194,-0.162,-0.113
'0:00.196',-0.047,-0.112,-0.066,0.080,0.009,-0.089,0.000,-0.194,-0.225,-0.197,-0.162,-0.109
'0:00.197',-0.050,-0.116,-0.066,0.083,0.007,-0.091,0.000,-0.200,-0.225,-0.194,-0.162,-0.113
'0:00.198',-0.051,-0.117,-0.066,0.084,0.007,-0.091,0.000,-0.203,-0.225,-0.194,-0.162,-0.119
'0:00.199',-0.053,-0.119,-0.066,0.086,0.006,-0.093,0.000,-0.206,-0.225,-0.194,-0.162,-0.119
'0:00.200',-0.056,-0.122,-0.066,0.089,0.004,-0.094,0.000,-0.203,-0.228,-0.191,-0.166,-0.109
'0:00.201',-0.056,-0.122,-0.066,0.089,0.004,-0.094,0.000,-0.200,-0.225,-0.187,-0.169,-0.113
'0:00.202',-0.054,-0.123,-0.069,0.089,0.007,-0.096,0.003,-0.203,-0.225,-0.187,-0.169,-0.116
'0:00.203',-0.056,-0.125,-0.069,0.091,0.006,-0.097,0.006,-0.206,-0.225,-0.187,-0.169,-0.119
'0:00.204',-0.061,-0.125,-0.064,0.093,0.002,-0.095,0.003,-0.206,-0.228,-0.187,-0.172,-0.122
'0:00.205',-0.059,-0.128,-0.069,0.094,0.004,-0.099,0.006,-0.206,-0.231,-0.187,-0.175,-0.125
'0:00.206',-0.058,-0.125,-0.067,0.092,0.004,-0.096,0.000,-0.200,-0.228,-0.197,-0.169,-0.122
'0:00.207',-0.056,-0.125,-0.069,0.091,0.006,-0.097,0.000,-0.200,-0.231,-0.194,-0.169,-0.119
'0:00.208',-0.055,-0.125,-0.070,0.090,0.007,-0.097,0.000,-0.203,-0.234,-0.200,-0.169,-0.119
'0:00.209',-0.056,-0.125,-0.069,0.091,0.006,-0.097,0.000,-0.206,-0.237,-0.200,-0.169,-0.119
'0:00.210',-0.056,-0.125,-0.069,0.091,0.006,-0.097,0.003,-0.203,-0.234,-0.200,-0.169,-0.119
'0:00.211',-0.056,-0.125,-0.069,0.091,0.006,-0.097,0.000,-0.200,-0.231,-0.200,-0.169,-0.119
'0:00.212',-0.055,-0.126,-0.071,0.091,0.008,-0.099,0.000,-0.200,-0.231,-0.197,-0.169,-0.116
'0:00.213',-0.053,-0.128,-0.075,0.091,0.011,-0.102,-0.006,-0.200,-0.231,-0.194,-0.169,-0.119
'0:00.214',-0.056,-0.125,-0.069,0.091,0.006,-0.097,0.006,-0.203,-0.231,-0.194,-0.166,-0.122
'0:00.215',-0.056,-0.122,-0.066,0.089,0.004,-0.094,0.006,-0.200,-0.231,-0.194,-0.162,-0.119
'0:00.216',-0.056,-0.126,-0.070,0.091,0.007,-0.098,0.006,-0.200,-0.231,-0.191,-0.162,-0.116
'0:00.217',-0.056,-0.128,-0.072,0.092,0.007,-0.100,0.006,-0.206,-0.231,-0.187,-0.162,-0.113
'0:00.218',-0.058,-0.127,-0.069,0.092,0.006,-0.098,0.003,-0.203,-0.237,-0.191,-0.162,-0.119
'0:00.219',-0.056,-0.125,-0.069,0.091,0.006,-0.097,0.000,-0.206,-0.231,-0.194,-0.162,-0.113
'0:00.220',-0.056,-0.122,-0.066,0.089,0.004,-0.094,0.000,-0.206,-0.228,-0.194,-0.162,-0.119
'0:00.221',-0.059,-0.125,-0.066,0.092,0.003,-0.096,0.000,-0.206,-0.225,-0.194,-0.162,-0.119
'0:00.222',-0.061,-0.126,-0.066,0.094,0.002,-0.096,0.000,-0.206,-0.231,-0.194,-0.162,-0.119
'0:00.223',-0.062,-0.128,-0.066,0.096,0.001,-0.097,0.000,-0.206,-0.225,-0.194,-0.162,-0.119
'0:00.224',-0.062,-0.124,-0.061,0.093,-0.001,-0.093,0.003,-0.203,-0.231,-0.194,-0.159,-0.119
'0:00.225',-0.062,-0.125,-0.062,0.094,0.000,-0.094,0.006,-0.200,-0.231,-0.194,-0.162,-0.119
'0:00.226',-0.062,-0.134,-0.072,0.099,0.004,-0.103,0.006,-0.200,-0.228,-0.194,-0.166,-0.119
'0:00.227',-0.059,-0.141,-0.081,0.100,0.011,-0.111,0.006,-0.200,-0.225,-0.200,-0.162,-0.119
'0:00.228',-0.064,-0.139,-0.076,0.102,0.006,-0.108,0.009,-0.200,-0.228,-0.200,-0.169,-0.122
'0:00.229',-0.066,-0.137,-0.072,0.102,0.003,-0.105,0.006,-0.200,-0.231,-0.200,-0.169,-0.125
'0:00.230',-0.066,-0.137,-0.072,0.102,0.003,-0.105,0.000,-0.200,-0.231,-0.203,-0.169,-0.125
'0:00.231',-0.066,-0.137,-0.072,0.102,0.003,-0.105,0.000,-0.200,-0.231,-0.206,-0.169,-0.125
'0:00.232',-0.064,-0.137,-0.073,0.101,0.004,-0.106,0.000,-0.200,-0.228,-0.206,-0.159,-0.125
'0:00.233',-0.062,-0.137,-0.075,0.100,0.006,-0.106,0.000,-0.200,-0.231,-0.206,-0.162,-0.125
'0:00.234',-0.059,-0.134,-0.075,0.097,0.007,-0.105,0.003,-0.209,-0.228,-0.206,-0.166,-0.131
'0:00.235',-0.056,-0.134,-0.078,0.096,0.011,-0.106,0.006,-0.212,-0.231,-0.206,-0.169,-0.125
'0:00.236',-0.061,-0.131,-0.071,0.096,0.005,-0.101,0.006,-0.206,-0.231,-0.206,-0.162,-0.125
'0:00.237',-0.062,-0.128,-0.066,0.096,0.001,-0.097,0.006,-0.206,-0.231,-0.206,-0.169,-0.125
'0:00.238',-0.059,-0.128,-0.069,0.094,0.004,-0.099,0.009,-0.209,-0.228,-0.200,-0.172,-0.125
'0:00.239',-0.056,-0.125,-0.069,0.091,0.006,-0.097,0.013,-0.206,-0.225,-0.206,-0.175,-0.125
'0:00.240',-0.053,-0.123,-0.070,0.088,0.008,-0.097,0.013,-0.206,-0.225,-0.206,-0.175,-0.125
'0:00.241',-0.056,-0.125,-0.069,0.091,0.006,-0.097,0.013,-0.206,-0.225,-0.206,-0.175,-0.131
'0:00.242',-0.056,-0.125,-0.069,0.091,0.006,-0.097,0.013,-0.206,-0.225,-0.206,-0.172,-0.125
'0:00.243',-0.059,-0.125,-0.066,0.092,0.003,-0.096,0.013,-0.206,-0.225,-0.206,-0.169,-0.125
'0:00.244',-0.056,-0.126,-0.070,0.091,0.007,-0.098,0.022,-0.206,-0.228,-0.206,-0.169,-0.125
'0:00.245',-0.056,-0.128,-0.072,0.092,0.007,-0.100,0.019,-0.200,-0.231,-0.206,-0.169,-0.125
'0:00.246',-0.054,-0.128,-0.074,0.091,0.009,-0.101,0.019,-0.203,-0.228,-0.206,-0.172,-0.125
'0:00.247',-0.056,-0.128,-0.072,0.092,0.007,-0.100,0.019,-0.200,-0.225,-0.206,-0.175,-0.125
'0:00.248',-0.056,-0.128,-0.072,0.092,0.007,-0.100,0.016,-0.203,-0.234,-0.203,-0.172,-0.125
'0:00.249',-0.056,-0.128,-0.072,0.092,0.007,-0.100,0.019,-0.206,-0.231,-0.200,-0.169,-0.125
'0:00.250',-0.058,-0.134,-0.077,0.096,0.009,-0.106,0.016,-0.203,-0.231,-0.200,-0.169,-0.125
'0:00.251',-0.066,-0.134,-0.069,0.100,0.001,-0.102,0.013,-0.206,-0.231,-0.200,-0.169,-0.125
'0:00.252',-0.064,-0.133,-0.069,0.099,0.002,-0.101,0.013,-0.206,-0.231,-0.200,-0.172,-0.128
'0:00.253',-0.066,-0.131,-0.066,0.099,0.000,-0.099,0.013,-0.206,-0.231,-0.200,-0.175,-0.131
'0:00.254',-0.067,-0.133,-0.066,0.100,-0.001,-0.100,0.016,-0.203,-0.231,-0.197,-0.172,-0.128
'0:00.255',-0.066,-0.131,-0.066,0.099,0.000,-0.099,0.019,-0.200,-0.231,-0.194,-0.169,-0.125
'0:00.256',-0.062,-0.130,-0.067,0.096,0.002,-0.099,0.019,-0.203,-0.231,-0.200,-0.172,-0.125
'0:00.257',-0.059,-0.128,-0.069,0.094,0.004,-0.099,0.019,-0.206,-0.231,-0.194,-0.175,-0.131
'0:00.258',-0.056,-0.127,-0.071,0.092,0.007,-0.099,0.019,-0.206,-0.231,-0.194,-0.175,-0.128
'0:00.259',-0.056,-0.128,-0.072,0.092,0.007,-0.100,0.019,-0.206,-0.231,-0.200,-0.181,-0.125
'0:00.260',-0.055,-0.129,-0.074,0.092,0.009,-0.102,0.022,-0.206,-0.228,-0.200,-0.181,-0.125
'0:00.261',-0.053,-0.134,-0.081,0.094,0.014,-0.108,0.025,-0.212,-0.231,-0.200,-0.181,-0.125
'0:00.262',-0.055,-0.136,-0.081,0.096,0.013,-0.109,0.019,-0.212,-0.231,-0.197,-0.178,-0.125
'0:00.263',-0.050,-0.134,-0.084,0.092,0.017,-0.109,0.019,-0.212,-0.231,-0.200,-0.181,-0.125
'0:00.264',-0.051,-0.139,-0.087,0.095,0.018,-0.113,0.016,-0.219,-0.228,-0.209,-0.178,-0.131
'0:00.265',-0.050,-0.141,-0.091,0.096,0.020,-0.116,0.013,-0.212,-0.231,-0.206,-0.175,-0.131
'0:00.266',-0.047,-0.144,-0.097,0.096,0.025,-0.121,0.013,-0.212,-0.234,-0.209,-0.181,-0.134
'0:00.267',-0.044,-0.144,-0.100,0.094,0.028,-0.122,0.013,-0.212,-0.231,-0.212,-0.181,-0.131
'0:00.268',-0.042,-0.137,-0.095,0.090,0.026,-0.116,0.009,-0.209,-0.234,-0.206,-0.184,-0.131
'0:00.269',-0.038,-0.128,-0.091,0.083,0.026,-0.109,0.006,-0.212,-0.231,-0.206,-0.187,-0.131
'0:00.270',-0.039,-0.128,-0.089,0.084,0.025,-0.109,0.013,-0.206,-0.225,-0.197,-0.184,-0.122
'0:00.271',-0.038,-0.122,-0.084,0.080,0.023,-0.103,0.013,-0.206,-0.225,-0.194,-0.175,-0.119
'0:00.272',-0.036,-0.112,-0.076,0.074,0.020,-0.094,0.016,-0.203,-0.222,-0.194,-0.172,-0.122
'0:00.273',-0.034,-0.100,-0.066,0.068,0.016,-0.083,0.019,-0.200,-0.219,-0.194,-0.169,-0.119
'0:00.274',-0.036,-0.094,-0.058,0.065,0.011,-0.076,0.025,-0.187,-0.212,-0.187,-0.162,-0.113
'0:00.275',-0.038,-0.088,-0.050,0.063,0.006,-0.069,0.031,-0.175,-0.206,-0.181,-0.156,-0.106
'0:00.276',-0.038,-0.081,-0.044,0.059,0.003,-0.063,0.034,-0.169,-0.197,-0.172,-0.147,-0.100
'0:00.277',-0.038,-0.075,-0.037,0.056,0.000,-0.056,0.044,-0.163,-0.194,-0.169,-0.144,-0.100
'0:00.278',-0.034,-0.066,-0.031,0.050,-0.002,-0.049,0.044,-0.159,-0.187,-0.162,-0.137,-0.091
'0:00.279',-0.034,-0.059,-0.025,0.047,-0.005,-0.043,0.044,-0.150,-0.187,-0.162,-0.137,-0.087
'0:00.280',-0.034,-0.056,-0.022,0.046,-0.006,-0.039,0.044,-0.150,-0.184,-0.153,-0.131,-0.087
'0:00.281',-0.031,-0.050,-0.019,0.041,-0.006,-0.034,0.038,-0.150,-0.187,-0.150,-0.131,-0.087
'0:00.282',-0.034,-0.050,-0.016,0.042,-0.009,-0.033,0.044,-0.153,-0.187,-0.153,-0.131,-0.078
'0:00.283',-0.031,-0.050,-0.019,0.041,-0.006,-0.034,0.038,-0.156,-0.187,-0.156,-0.131,-0.075
'0:00.284',-0.030,-0.050,-0.020,0.040,-0.005,-0.035,0.044,-0.156,-0.184,-0.156,-0.134,-0.078
'0:00.285',-0.028,-0.050,-0.022,0.039,-0.003,-0.036,0.044,-0.156,-0.181,-0.156,-0.131,-0.075
'0:00.286',-0.017,-0.041,-0.023,0.029,0.002,-0.032,0.041,-0.153,-0.181,-0.156,-0.131,-0.078
'0:00.287',-0.009,-0.037,-0.028,0.024,0.009,-0.033,0.038,-0.156,-0.181,-0.156,-0.131,-0.081
'0:00.288',-0.006,-0.042,-0.036,0.024,0.014,-0.039,0.031,-0.153,-0.184,-0.153,-0.128,-0.081
'0:00.289',-0.003,-0.047,-0.044,0.025,0.020,-0.046,0.031,-0.150,-0.181,-0.156,-0.131,-0.081
'0:00.290',-0.004,-0.053,-0.049,0.029,0.022,-0.051,0.025,-0.159,-0.181,-0.156,-0.134,-0.081
'0:00.291',-0.009,-0.056,-0.047,0.033,0.019,-0.052,0.025,-0.156,-0.181,-0.156,-0.131,-0.081
'0:00.292',-0.009,-0.054,-0.045,0.032,0.017,-0.050,0.025,-0.153,-0.184,-0.153,-0.128,-0.078
'0:00.293',-0.006,-0.047,-0.041,0.027,0.017,-0.044,0.025,-0.144,-0.181,-0.150,-0.119,-0.081
'0:00.294',-0.003,-0.041,-0.037,0.022,0.017,-0.039,0.016,-0.141,-0.175,-0.144,-0.116,-0.078
'0:00.295',-0.003,-0.034,-0.031,0.019,0.014,-0.033,0.019,-0.138,-0.169,-0.144,-0.112,-0.075
'0:00.296',-0.002,-0.027,-0.025,0.014,0.011,-0.026,0.022,-0.134,-0.169,-0.137,-0.109,-0.078
'0:00.297',0.000,-0.019,-0.019,0.009,0.009,-0.019,0.019,-0.138,-0.162,-0.137,-0.112,-0.075
'0:00.298',-0.002,-0.014,-0.012,0.008,0.005,-0.013,0.025,-0.138,-0.156,-0.131,-0.106,-0.075
'0:00.299',-0.003,-0.013,-0.009,0.008,0.003,-0.011,0.025,-0.138,-0.156,-0.131,-0.106,-0.069
'0:00.300',-0.003,-0.008,-0.005,0.006,0.001,-0.007,0.025,-0.134,-0.156,-0.125,-0.103,-0.066
'0:00.301',-0.003,0.000,0.003,0.002,-0.003,0.001,0.025,-0.131,-0.156,-0.125,-0.100,-0.062
'0:00.302',-0.004,0.001,0.006,0.002,-0.005,0.003,0.025,-0.138,-0.153,-0.131,-0.103,-0.062
'0:00.303',-0.006,0.003,0.009,0.002,-0.008,0.006,0.025,-0.138,-0.150,-0.131,-0.106,-0.056
'0:00.304',-0.006,0.004,0.011,0.001,-0.009,0.007,0.022,-0.134,-0.156,-0.131,-0.103,-0.056
'0:00.305',-0.009,0.006,0.016,0.002,-0.012,0.011,0.019,-0.138,-0.156,-0.131,-0.100,-0.056
'0:00.306',-0.016,0.000,0.016,0.008,-0.016,0.007,0.019,-0.138,-0.153,-0.128,-0.097,-0.062
'0:00.307',-0.019,0.000,0.019,0.009,-0.019,0.009,0.019,-0.144,-0.156,-0.125,-0.100,-0.062
'0:00.308',-0.022,0.000,0.022,0.011,-0.022,0.011,0.019,-0.144,-0.156,-0.131,-0.100,-0.059
'0:00.309',-0.022,0.000,0.022,0.011,-0.022,0.011,0.019,-0.144,-0.156,-0.131,-0.100,-0.056
'0:00.310',-0.021,-0.002,0.019,0.011,-0.020,0.008,0.019,-0.147,-0.159,-0.131,-0.103,-0.059
'0:00.311',-0.019,-0.003,0.016,0.011,-0.018,0.006,0.019,-0.150,-0.162,-0.131,-0.106,-0.056
'0:00.312',-0.016,-0.006,0.009,0.011,-0.012,0.001,0.019,-0.150,-0.159,-0.131,-0.100,-0.056
'0:00.313',-0.016,-0.016,0.000,0.016,-0.008,-0.008,0.019,-0.150,-0.162,-0.137,-0.100,-0.062
'0:00.314',-0.017,-0.025,-0.008,0.021,-0.005,-0.016,0.019,-0.147,-0.162,-0.137,-0.109,-0.072
'0:00.315',-0.013,-0.031,-0.019,0.022,0.003,-0.025,0.019,-0.144,-0.162,-0.137,-0.112,-0.075
'0:00.316',-0.013,-0.042,-0.029,0.028,0.008,-0.036,0.016,-0.150,-0.162,-0.141,-0.116,-0.075
'0:00.317',-0.013,-0.050,-0.037,0.031,0.012,-0.044,0.019,-0.150,-0.169,-0.137,-0.119,-0.075
'0:00.318',-0.011,-0.049,-0.037,0.030,0.013,-0.043,0.013,-0.153,-0.169,-0.141,-0.119,-0.078
'0:00.319',-0.006,-0.050,-0.044,0.028,0.019,-0.047,0.013,-0.163,-0.175,-0.150,-0.125,-0.081
'0:00.320',-0.008,-0.050,-0.042,0.029,0.017,-0.046,0.009,-0.172,-0.184,-0.153,-0.125,-0.078
'0:00.321',-0.003,-0.050,-0.047,0.027,0.022,-0.049,0.006,-0.175,-0.187,-0.162,-0.125,-0.075
'0:00.322',-0.004,-0.063,-0.058,0.034,0.027,-0.061,0.000,-0.175,-0.197,-0.159,-0.134,-0.075
'0:00.323',-0.006,-0.072,-0.066,0.039,0.029,-0.069,0.000,-0.175,-0.200,-0.162,-0.137,-0.075
'0:00.324',-0.009,-0.078,-0.069,0.044,0.029,-0.074,0.003,-0.175,-0.200,-0.162,-0.137,-0.084
'0:00.325',-0.013,-0.081,-0.069,0.047,0.028,-0.075,0.006,-0.175,-0.200,-0.162,-0.137,-0.081
'0:00.326',-0.013,-0.078,-0.066,0.046,0.026,-0.072,0.003,-0.175,-0.197,-0.162,-0.137,-0.081
'0:00.327',-0.013,-0.078,-0.066,0.046,0.026,-0.072,0.000,-0.175,-0.200,-0.162,-0.137,-0.081
'0:00.328',-0.013,-0.081,-0.069,0.047,0.028,-0.075,0.000,-0.181,-0.203,-0.159,-0.131,-0.078
'0:00.329',-0.016,-0.081,-0.066,0.049,0.025,-0.074,0.000,-0.181,-0.206,-0.162,-0.137,-0.081
'0:00.330',-0.019,-0.081,-0.062,0.050,0.022,-0.072,-0.003,-0.181,-0.206,-0.162,-0.141,-0.081
'0:00.331',-0.028,-0.084,-0.056,0.056,0.014,-0.071,0.000,-0.181,-0.212,-0.162,-0.137,-0.081
'0:00.332',-0.034,-0.089,-0.055,0.062,0.010,-0.073,0.000,-0.187,-0.209,-0.162,-0.137,-0.084
'0:00.333',-0.038,-0.091,-0.053,0.064,0.007,-0.072,0.000,-0.187,-0.206,-0.162,-0.137,-0.081
'0:00.334',-0.034,-0.088,-0.053,0.061,0.009,-0.071,0.000,-0.187,-0.212,-0.172,-0.144,-0.084
'0:00.335',-0.034,-0.091,-0.056,0.063,0.011,-0.074,0.000,-0.187,-0.212,-0.175,-0.144,-0.081
'0:00.336',-0.034,-0.091,-0.056,0.063,0.011,-0.074,0.009,-0.194,-0.209,-0.172,-0.147,-0.087
'0:00.337',-0.034,-0.094,-0.059,0.064,0.012,-0.077,0.006,-0.194,-0.212,-0.175,-0.144,-0.087
'0:00.338',-0.038,-0.097,-0.059,0.068,0.011,-0.078,0.003,-0.191,-0.216,-0.175,-0.150,-0.091
'0:00.339',-0.041,-0.103,-0.062,0.072,0.011,-0.083,0.000,-0.194,-0.219,-0.181,-0.156,-0.100
'0:00.340',-0.050,-0.114,-0.064,0.082,0.007,-0.089,0.003,-0.203,-0.225,-0.187,-0.166,-0.106
'0:00.341',-0.056,-0.122,-0.066,0.089,0.004,-0.094,0.006,-0.212,-0.231,-0.194,-0.175,-0.113
'0:00.342',-0.061,-0.128,-0.067,0.094,0.003,-0.098,0.006,-0.216,-0.237,-0.203,-0.175,-0.119
'0:00.343',-0.066,-0.137,-0.072,0.102,0.003,-0.105,0.006,-0.219,-0.237,-0.206,-0.175,-0.125
'0:00.344',-0.069,-0.144,-0.075,0.106,0.003,-0.109,0.009,-0.222,-0.244,-0.206,-0.181,-0.128
'0:00.345',-0.075,-0.147,-0.072,0.111,-0.002,-0.109,0.013,-0.219,-0.244,-0.212,-0.181,-0.131
'0:00.346',-0.081,-0.154,-0.073,0.118,-0.004,-0.114,0.009,-0.225,-0.250,-0.212,-0.187,-0.138
'0:00.347',-0.081,-0.159,-0.078,0.121,-0.002,-0.119,0.006,-0.225,-0.250,-0.212,-0.187,-0.138
'0:00.348',-0.078,-0.159,-0.081,0.119,0.001,-0.121,0.003,-0.228,-0.253,-0.216,-0.187,-0.138
'0:00.349',-0.075,-0.159,-0.084,0.117,0.004,-0.122,0.000,-0.231,-0.256,-0.219,-0.187,-0.138
'0:00.350',-0.078,-0.163,-0.084,0.121,0.003,-0.124,-0.006,-0.234,-0.256,-0.212,-0.191,-0.138
'0:00.351',-0.078,-0.163,-0.084,0.121,0.003,-0.124,0.000,-0.225,-0.256,-0.212,-0.194,-0.138
'0:00.352',-0.075,-0.156,-0.081,0.116,0.003,-0.119,-0.006,-0.231,-0.256,-0.212,-0.191,-0.138
'0:00.353',-0.075,-0.156,-0.081,0.116,0.003,-0.119,0.000,-0.231,-0.256,-0.212,-0.187,-0.138
'0:00.354',-0.074,-0.153,-0.079,0.114,0.002,-0.116,0.000,-0.225,-0.256,-0.216,-0.194,-0.138
'0:00.355',-0.072,-0.153,-0.081,0.112,0.004,-0.118,0.000,-0.225,-0.256,-0.219,-0.194,-0.138
'0:00.356',-0.075,-0.153,-0.078,0.114,0.001,-0.116,-0.006,-0.231,-0.256,-0.219,-0.194,-0.138
'0:00.357',-0.075,-0.156,-0.081,0.116,0.003,-0.119,0.000,-0.231,-0.256,-0.219,-0.194,-0.138
'0:00.358',-0.075,-0.153,-0.078,0.114,0.001,-0.116,0.000,-0.231,-0.250,-0.222,-0.191,-0.138
'0:00.359',-0.075,-0.150,-0.075,0.112,0.000,-0.113,0.000,-0.231,-0.250,-0.225,-0.187,-0.138
'0:00.360',-0.074,-0.149,-0.075,0.111,0.001,-0.112,0.003,-0.231,-0.250,-0.222,-0.191,-0.134
'0:00.361',-0.072,-0.150,-0.078,0.111,0.003,-0.114,0.006,-0.231,-0.250,-0.225,-0.194,-0.131
'0:00.362',-0.072,-0.151,-0.079,0.112,0.004,-0.116,0.000,-0.231,-0.250,-0.225,-0.194,-0.134
'0:00.363',-0.072,-0.153,-0.081,0.112,0.004,-0.118,-0.006,-0.238,-0.250,-0.219,-0.194,-0.138
'0:00.364',-0.073,-0.153,-0.080,0.113,0.003,-0.117,-0.003,-0.238,-0.250,-0.228,-0.194,-0.138
'0:00.365',-0.075,-0.153,-0.078,0.114,0.001,-0.116,-0.006,-0.238,-0.250,-0.225,-0.200,-0.138
'0:00.366',-0.072,-0.154,-0.082,0.113,0.005,-0.119,0.000,-0.238,-0.250,-0.231,-0.194,-0.138
'0:00.367',-0.075,-0.159,-0.084,0.117,0.004,-0.122,0.000,-0.238,-0.250,-0.231,-0.194,-0.138
'0:00.368',-0.071,-0.153,-0.082,0.112,0.006,-0.118,0.000,-0.244,-0.250,-0.222,-0.194,-0.138
'0:00.369',-0.072,-0.150,-0.078,0.111,0.003,-0.114,-0.006,-0.244,-0.250,-0.225,-0.194,-0.138
'0:00.370',-0.072,-0.154,-0.082,0.113,0.005,-0.119,-0.006,-0.244,-0.250,-0.225,-0.194,-0.138
'0:00.371',-0.072,-0.159,-0.087,0.116,0.007,-0.124,0.000,-0.244,-0.250,-0.219,-0.194,-0.138
'0:00.372',-0.078,-0.163,-0.084,0.121,0.003,-0.124,-0.003,-0.241,-0.250,-0.225,-0.194,-0.138
'0:00.373',-0.084,-0.166,-0.081,0.125,-0.002,-0.124,0.000,-0.244,-0.250,-0.225,-0.200,-0.138
'0:00.374',-0.083,-0.164,-0.081,0.124,-0.001,-0.123,-0.003,-0.238,-0.250,-0.225,-0.194,-0.134
'0:00.375',-0.081,-0.163,-0.081,0.122,0.000,-0.122,0.000,-0.244,-0.250,-0.225,-0.194,-0.138
'0:00.376',-0.083,-0.164,-0.081,0.124,-0.001,-0.123,0.000,-0.241,-0.250,-0.225,-0.194,-0.138
'0:00.377',-0.081,-0.163,-0.081,0.122,0.000,-0.122,-0.006,-0.238,-0.250,-0.225,-0.194,-0.131
'0:00.378',-0.081,-0.164,-0.083,0.123,0.001,-0.124,0.000,-0.241,-0.253,-0.225,-0.197,-0.138
'0:00.379',-0.081,-0.159,-0.078,0.121,-0.002,-0.119,-0.006,-0.244,-0.250,-0.225,-0.200,-0.138
'0:00.380',-0.075,-0.158,-0.083,0.117,0.004,-0.121,-0.006,-0.247,-0.253,-0.228,-0.197,-0.138
'0:00.381',-0.072,-0.156,-0.084,0.114,0.006,-0.121,-0.006,-0.250,-0.250,-0.231,-0.200,-0.138
'0:00.382',-0.069,-0.150,-0.081,0.109,0.006,-0.116,-0.009,-0.247,-0.256,-0.231,-0.203,-0.138
'0:00.383',-0.069,-0.147,-0.078,0.108,0.004,-0.113,-0.006,-0.244,-0.250,-0.231,-0.200,-0.138
'0:00.384',-0.070,-0.147,-0.077,0.109,0.003,-0.112,-0.003,-0.244,-0.250,-0.228,-0.197,-0.138
'0:00.385',-0.072,-0.147,-0.075,0.109,0.001,-0.111,0.000,-0.244,-0.250,-0.225,-0.194,-0.138
'0:00.386',-0.075,-0.148,-0.073,0.112,-0.001,-0.111,0.003,-0.238,-0.250,-0.225,-0.194,-0.141
'0:00.387',-0.078,-0.150,-0.072,0.114,-0.003,-0.111,0.006,-0.238,-0.250,-0.225,-0.194,-0.144
'0:00.388',-0.074,-0.150,-0.076,0.112,0.001,-0.113,0.003,-0.238,-0.250,-0.228,-0.200,-0.141
'0:00.389',-0.075,-0.150,-0.075,0.112,0.000,-0.113,0.000,-0.238,-0.250,-0.225,-0.194,-0.138
'0:00.390',-0.075,-0.150,-0.075,0.112,0.000,-0.113,-0.003,-0.234,-0.250,-0.222,-0.194,-0.138
'0:00.391',-0.075,-0.150,-0.075,0.112,0.000,-0.113,-0.006,-0.231,-0.250,-0.219,-0.194,-0.138
'0:00.392',-0.073,-0.150,-0.077,0.112,0.002,-0.114,0.000,-0.234,-0.253,-0.219,-0.194,-0.141
'0:00.393',-0.075,-0.150,-0.075,0.112,0.000,-0.113,0.006,-0.231,-0.250,-0.219,-0.194,-0.144
'0:00.394',-0.076,-0.154,-0.078,0.116,0.001,-0.116,0.006,-0.231,-0.250,-0.209,-0.184,-0.134
'0:00.395',-0.081,-0.163,-0.081,0.122,0.000,-0.122,0.006,-0.231,-0.250,-0.212,-0.187,-0.138
'0:00.396',-0.083,-0.166,-0.082,0.124,-0.001,-0.124,0.006,-0.234,-0.250,-0.216,-0.191,-0.141
'0:00.397',-0.081,-0.166,-0.084,0.124,0.001,-0.125,0.006,-0.238,-0.250,-0.225,-0.200,-0.150
'0:00.398',-0.081,-0.166,-0.084,0.124,0.001,-0.125,0.009,-0.225,-0.250,-0.225,-0.197,-0.153
'0:00.399',-0.081,-0.172,-0.091,0.127,0.004,-0.131,0.013,-0.219,-0.250,-0.231,-0.200,-0.162
'0:00.400',-0.080,-0.178,-0.098,0.129,0.009,-0.138,0.028,-0.216,-0.250,-0.231,-0.212,-0.166
'0:00.401',-0.081,-0.191,-0.109,0.136,0.014,-0.150,0.038,-0.206,-0.256,-0.244,-0.225,-0.175
'0:00.402',-0.091,-0.203,-0.113,0.147,0.011,-0.158,0.050,-0.200,-0.256,-0.250,-0.234,-0.191
'0:00.403',-0.097,-0.209,-0.113,0.153,0.007,-0.161,0.069,-0.187,-0.256,-0.256,-0.237,-0.200
'0:00.404',-0.097,-0.220,-0.123,0.159,0.013,-0.172,0.094,-0.172,-0.256,-0.259,-0.247,-0.206
'0:00.405',-0.097,-0.228,-0.131,0.162,0.017,-0.180,0.113,-0.163,-0.256,-0.262,-0.256,-0.212
'0:00.406',-0.089,-0.225,-0.136,0.157,0.023,-0.181,0.119,-0.153,-0.259,-0.275,-0.269,-0.225
'0:00.407',-0.084,-0.216,-0.131,0.150,0.023,-0.174,0.131,-0.138,-0.256,-0.275,-0.269,-0.231
'0:00.408',-0.080,-0.209,-0.129,0.145,0.024,-0.169,0.138,-0.125,-0.253,-0.281,-0.275,-0.237
'0:00.409',-0.072,-0.206,-0.134,0.139,0.031,-0.171,0.144,-0.106,-0.244,-0.275,-0.275,-0.237
'0:00.410',-0.059,-0.206,-0.147,0.133,0.044,-0.177,0.147,-0.094,-0.241,-0.278,-0.275,-0.241
'0:00.411',-0.044,-0.194,-0.150,0.119,0.053,-0.172,0.150,-0.075,-0.225,-0.269,-0.269,-0.244
'0:00.412',-0.031,-0.174,-0.142,0.103,0.056,-0.158,0.147,-0.059,-0.206,-0.259,-0.262,-0.234
'0:00.413',-0.019,-0.144,-0.125,0.081,0.053,-0.134,0.144,-0.037,-0.181,-0.231,-0.244,-0.219
'0:00.414',-0.014,-0.112,-0.099,0.063,0.042,-0.106,0.141,-0.012,-0.150,-0.203,-0.216,-0.197
'0:00.415',-0.013,-0.072,-0.059,0.042,0.023,-0.066,0.144,0.006,-0.119,-0.162,-0.181,-0.169
'0:00.416',-0.014,-0.028,-0.014,0.021,0.000,-0.021,0.147,0.019,-0.091,-0.131,-0.147,-0.134
'0:00.417',-0.006,0.025,0.031,-0.009,-0.019,0.028,0.144,0.037,-0.050,-0.081,-0.100,-0.094
'0:00.418',0.002,0.075,0.073,-0.038,-0.036,0.074,0.141,0.066,-0.012,-0.031,-0.047,-0.056
'0:00.419',0.009,0.134,0.125,-0.072,-0.058,0.129,0.131,0.094,0.044,0.031,0.013,-0.006
'0:00.420',0.021,0.191,0.170,-0.106,-0.075,0.180,0.116,0.122,0.097,0.094,0.069,0.047
'0:00.421',0.041,0.241,0.200,-0.141,-0.080,0.220,0.088,0.156,0.163,0.163,0.138,0.106
'0:00.422',0.059,0.296,0.236,-0.178,-0.089,0.266,0.066,0.191,0.225,0.238,0.203,0.166
'0:00.423',0.075,0.362,0.288,-0.219,-0.106,0.325,0.044,0.231,0.294,0.319,0.281,0.231
'0:00.424',0.097,0.438,0.341,-0.267,-0.122,0.389,0.022,0.269,0.363,0.403,0.356,0.303
'0:00.425',0.119,0.509,0.391,-0.314,-0.136,0.450,-0.006,0.319,0.438,0.494,0.444,0.375
'0:00.426',0.144,0.578,0.434,-0.361,-0.146,0.506,-0.025,0.381,0.525,0.584,0.538,0.447
'0:00.427',0.172,0.659,0.488,-0.416,-0.158,0.573,-0.050,0.444,0.619,0.688,0.638,0.525
'0:00.428',0.204,0.744,0.539,-0.474,-0.168,0.641,-0.084,0.506,0.722,0.791,0.738,0.609
'0:00.429',0.238,0.847,0.609,-0.542,-0.186,0.728,-0.119,0.575,0.831,0.913,0.856,0.706
'0:00.430',0.269,0.951,0.682,-0.610,-0.207,0.817,-0.162,0.641,0.947,1.041,0.978,0.816
'0:00.431',0.294,1.047,0.753,-0.670,-0.230,0.900,-0.194,0.706,1.056,1.169,1.094,0.913
'0:00.432',0.321,1.141,0.820,-0.731,-0.250,0.980,-0.219,0.756,1.166,1.287,1.206,1.009
'0:00.433',0.334,1.234,0.900,-0.784,-0.283,1.067,-0.250,0.788,1.263,1.400,1.306,1.094
'0:00.434',0.344,1.314,0.971,-0.829,-0.314,1.142,-0.275,0.819,1.359,1.509,1.403,1.175
'0:00.435',0.356,1.363,1.006,-0.859,-0.325,1.184,-0.306,0.844,1.450,1.606,1.481,1.231
'0:00.436',0.356,1.403,1.047,-0.879,-0.346,1.225,-0.322,0.866,1.531,1.691,1.553,1.278
'0:00.437',0.347,1.425,1.078,-0.886,-0.366,1.251,-0.325,0.881,1.606,1.769,1.606,1.313
'0:00.438',0.342,1.455,1.113,-0.898,-0.386,1.284,-0.341,0.906,1.669,1.838,1.653,1.338
'0:00.439',0.334,1.478,1.144,-0.906,-0.405,1.311,-0.350,0.912,1.725,1.894,1.694,1.356
'0:00.440',0.316,1.496,1.180,-0.906,-0.433,1.337,-0.359,0.916,1.778,1.944,1.731,1.372
'0:00.441',0.287,1.500,1.213,-0.894,-0.463,1.356,-0.356,0.912,1.819,1.975,1.744,1.369
'0:00.442',0.263,1.483,1.221,-0.872,-0.479,1.352,-0.363,0.903,1.844,2.009,1.741,1.366
'0:00.443',0.244,1.394,1.150,-0.819,-0.453,1.272,-0.363,0.894,1.850,2.000,1.700,1.313
'0:00.444',0.226,1.289,1.063,-0.757,-0.419,1.176,-0.350,0.881,1.856,1.984,1.656,1.259
'0:00.445',0.219,1.188,0.969,-0.703,-0.375,1.078,-0.369,0.825,1.838,1.950,1.606,1.194
'0:00.446',0.214,1.101,0.887,-0.658,-0.337,0.994,-0.394,0.766,1.806,1.909,1.544,1.144
'0:00.447',0.206,1.019,0.813,-0.612,-0.303,0.916,-0.425,0.688,1.756,1.850,1.475,1.081
'0:00.448',0.198,0.926,0.728,-0.562,-0.265,0.827,-0.453,0.625,1.719,1.803,1.413,1.022
'0:00.449',0.194,0.862,0.669,-0.528,-0.238,0.766,-0.481,0.562,1.675,1.750,1.350,0.969
'0:00.450',0.186,0.797,0.611,-0.491,-0.213,0.704,-0.503,0.497,1.628,1.688,1.291,0.909
'0:00.451',0.169,0.734,0.566,-0.451,-0.199,0.650,-0.512,0.425,1.538,1.588,1.194,0.844
'0:00.452',0.152,0.669,0.517,-0.410,-0.183,0.592,-0.522,0.350,1.434,1.484,1.100,0.775
'0:00.453',0.119,0.581,0.463,-0.350,-0.172,0.522,-0.512,0.256,1.306,1.338,0.975,0.681
'0:00.454',0.098,0.489,0.391,-0.294,-0.147,0.440,-0.497,0.175,1.172,1.194,0.856,0.588
'0:00.455',0.088,0.375,0.288,-0.231,-0.100,0.331,-0.481,0.119,1.044,1.025,0.719,0.481
'0:00.456',0.079,0.267,0.188,-0.173,-0.054,0.227,-0.469,0.059,0.909,0.856,0.575,0.372
'0:00.457',0.059,0.169,0.109,-0.114,-0.025,0.139,-0.444,-0.012,0.756,0.663,0.431,0.275
'0:00.458',0.041,0.079,0.039,-0.060,0.001,0.059,-0.422,-0.081,0.578,0.472,0.288,0.181
'0:00.459',0.019,0.012,-0.006,-0.016,0.012,0.003,-0.400,-0.163,0.406,0.306,0.163,0.106
'0:00.460',-0.004,-0.056,-0.052,0.031,0.024,-0.054,-0.381,-0.253,0.234,0.150,0.044,0.038
'0:00.461',-0.031,-0.100,-0.069,0.066,0.019,-0.084,-0.363,-0.344,0.075,0.031,-0.038,-0.019
'0:00.462',-0.050,-0.143,-0.093,0.096,0.021,-0.118,-0.347,-0.441,-0.081,-0.078,-0.109,-0.056
'0:00.463',-0.056,-0.169,-0.113,0.112,0.028,-0.141,-0.344,-0.519,-0.194,-0.144,-0.162,-0.087
'0:00.464',-0.061,-0.192,-0.131,0.127,0.035,-0.162,-0.334,-0.578,-0.297,-0.209,-0.209,-0.116
'0:00.465',-0.056,-0.209,-0.153,0.133,0.048,-0.181,-0.331,-0.581,-0.325,-0.225,-0.219,-0.125
'0:00.466',-0.056,-0.222,-0.166,0.139,0.054,-0.194,-0.328,-0.578,-0.337,-0.231,-0.225,-0.144
'0:00.467',-0.059,-0.225,-0.166,0.143,0.053,-0.196,-0.319,-0.556,-0.331,-0.231,-0.225,-0.144
'0:00.468',-0.058,-0.224,-0.166,0.141,0.054,-0.195,-0.300,-0.531,-0.328,-0.228,-0.225,-0.153
'0:00.469',-0.056,-0.216,-0.159,0.136,0.051,-0.188,-0.275,-0.500,-0.319,-0.219,-0.212,-0.150
'0:00.470',-0.055,-0.205,-0.150,0.130,0.048,-0.178,-0.262,-0.472,-0.297,-0.203,-0.197,-0.144
'0:00.471',-0.053,-0.194,-0.141,0.124,0.044,-0.167,-0.237,-0.438,-0.275,-0.187,-0.187,-0.138
'0:00.472',-0.056,-0.184,-0.128,0.121,0.036,-0.156,-0.212,-0.394,-0.253,-0.175,-0.172,-0.138
'0:00.473',-0.056,-0.178,-0.122,0.117,0.032,-0.150,-0.187,-0.362,-0.237,-0.169,-0.162,-0.131
'0:00.474',-0.058,-0.169,-0.111,0.113,0.027,-0.140,-0.162,-0.338,-0.225,-0.166,-0.159,-0.128
'0:00.475',-0.059,-0.166,-0.106,0.112,0.023,-0.136,-0.144,-0.313,-0.225,-0.175,-0.162,-0.131
'0:00.476',-0.056,-0.163,-0.106,0.109,0.025,-0.134,-0.125,-0.284,-0.216,-0.175,-0.166,-0.122
'0:00.477',-0.056,-0.156,-0.100,0.106,0.022,-0.128,-0.106,-0.263,-0.212,-0.175,-0.162,-0.119
'0:00.478',-0.055,-0.147,-0.092,0.101,0.018,-0.119,-0.091,-0.241,-0.203,-0.169,-0.162,-0.122
'0:00.479',-0.053,-0.137,-0.084,0.096,0.016,-0.111,-0.081,-0.225,-0.194,-0.169,-0.162,-0.119
'0:00.480',-0.049,-0.122,-0.073,0.086,0.012,-0.097,-0.069,-0.206,-0.191,-0.162,-0.156,-0.116
'0:00.481',-0.044,-0.119,-0.075,0.081,0.016,-0.097,-0.056,-0.194,-0.187,-0.162,-0.150,-0.106
'0:00.482',-0.042,-0.117,-0.074,0.080,0.016,-0.096,-0.050,-0.187,-0.184,-0.162,-0.153,-0.109
'0:00.483',-0.041,-0.112,-0.072,0.077,0.016,-0.093,-0.044,-0.181,-0.187,-0.156,-0.156,-0.100
'0:00.484',-0.042,-0.116,-0.074,0.079,0.016,-0.095,-0.037,-0.169,-0.184,-0.153,-0.153,-0.100
'0:00.485',-0.044,-0.112,-0.069,0.078,0.012,-0.091,-0.031,-0.163,-0.175,-0.150,-0.144,-0.100
'0:00.486',-0.045,-0.108,-0.062,0.076,0.009,-0.085,-0.025,-0.159,-0.172,-0.147,-0.137,-0.106
'0:00.487',-0.047,-0.106,-0.059,0.077,0.006,-0.083,-0.025,-0.156,-0.162,-0.150,-0.137,-0.106
'0:00.488',-0.047,-0.103,-0.056,0.075,0.004,-0.080,-0.019,-0.150,-0.153,-0.144,-0.128,-0.106
'0:00.489',-0.050,-0.106,-0.056,0.078,0.003,-0.081,-0.019,-0.150,-0.150,-0.144,-0.125,-0.106
'0:00.490',-0.050,-0.102,-0.052,0.076,0.001,-0.077,-0.016,-0.147,-0.153,-0.144,-0.125,-0.106
'0:00.491',-0.050,-0.103,-0.053,0.077,0.001,-0.078,-0.012,-0.150,-0.156,-0.144,-0.125,-0.106
'0:00.492',-0.054,-0.106,-0.052,0.081,-0.001,-0.079,-0.012,-0.144,-0.153,-0.144,-0.128,-0.106
'0:00.493',-0.056,-0.103,-0.047,0.080,-0.005,-0.075,-0.006,-0.144,-0.150,-0.144,-0.137,-0.106
'0:00.494',-0.058,-0.102,-0.044,0.080,-0.008,-0.073,-0.006,-0.144,-0.159,-0.150,-0.141,-0.106
'0:00.495',-0.056,-0.103,-0.047,0.080,-0.005,-0.075,0.000,-0.138,-0.162,-0.150,-0.144,-0.106
'0:00.496',-0.058,-0.105,-0.047,0.081,-0.005,-0.076,0.003,-0.138,-0.162,-0.147,-0.141,-0.109
'0:00.497',-0.059,-0.103,-0.044,0.081,-0.008,-0.074,0.006,-0.138,-0.162,-0.150,-0.144,-0.113
'0:00.498',-0.061,-0.103,-0.042,0.082,-0.009,-0.073,0.003,-0.134,-0.159,-0.153,-0.144,-0.109
'0:00.499',-0.062,-0.106,-0.044,0.084,-0.009,-0.075,0.006,-0.131,-0.156,-0.156,-0.137,-0.106
'0:00.500',-0.064,-0.109,-0.046,0.087,-0.009,-0.078,0.009,-0.128,-0.166,-0.156,-0.137,-0.103
'0:00.501',-0.062,-0.109,-0.047,0.086,-0.008,-0.078,0.019,-0.125,-0.162,-0.156,-0.144,-0.106
'0:00.502',-0.061,-0.109,-0.048,0.086,-0.007,-0.079,0.022,-0.125,-0.169,-0.156,-0.144,-0.109
'0:00.503',-0.056,-0.106,-0.050,0.081,-0.003,-0.078,0.019,-0.125,-0.169,-0.162,-0.144,-0.113
'0:00.504',-0.055,-0.105,-0.050,0.080,-0.003,-0.078,0.019,-0.122,-0.169,-0.159,-0.141,-0.103
'0:00.505',-0.053,-0.103,-0.050,0.078,-0.002,-0.077,0.019,-0.119,-0.162,-0.156,-0.137,-0.106
'0:00.506',-0.050,-0.100,-0.050,0.075,0.000,-0.075,0.019,-0.122,-0.159,-0.153,-0.134,-0.103
'0:00.507',-0.047,-0.097,-0.050,0.072,0.001,-0.074,0.013,-0.125,-0.156,-0.156,-0.137,-0.106
'0:00.508',-0.047,-0.097,-0.050,0.072,0.001,-0.074,0.009,-0.125,-0.156,-0.156,-0.137,-0.103
'0:00.509',-0.047,-0.094,-0.047,0.071,0.000,-0.071,0.013,-0.119,-0.156,-0.156,-0.137,-0.100
'0:00.510',-0.051,-0.094,-0.042,0.073,-0.004,-0.068,0.013,-0.119,-0.156,-0.156,-0.137,-0.100
'0:00.511',-0.050,-0.094,-0.044,0.072,-0.003,-0.069,0.013,-0.119,-0.156,-0.156,-0.137,-0.100
'0:00.512',-0.047,-0.092,-0.046,0.070,-0.001,-0.069,0.019,-0.119,-0.156,-0.162,-0.137,-0.103
'0:00.513',-0.047,-0.091,-0.044,0.069,-0.002,-0.067,0.019,-0.112,-0.156,-0.162,-0.137,-0.106
'0:00.514',-0.050,-0.091,-0.041,0.071,-0.005,-0.066,0.019,-0.116,-0.159,-0.162,-0.141,-0.106
'0:00.515',-0.047,-0.091,-0.044,0.069,-0.002,-0.067,0.019,-0.119,-0.162,-0.162,-0.144,-0.106
'0:00.516',-0.053,-0.097,-0.044,0.075,-0.005,-0.071,0.025,-0.112,-0.156,-0.156,-0.134,-0.106
'0:00.517',-0.059,-0.103,-0.044,0.081,-0.008,-0.074,0.019,-0.106,-0.156,-0.150,-0.131,-0.106
'0:00.518',-0.059,-0.103,-0.044,0.081,-0.008,-0.074,0.019,-0.103,-0.156,-0.150,-0.131,-0.097
'0:00.519',-0.059,-0.100,-0.041,0.080,-0.009,-0.071,0.019,-0.100,-0.156,-0.150,-0.131,-0.100
'0:00.520',-0.055,-0.097,-0.042,0.076,-0.007,-0.069,0.016,-0.100,-0.156,-0.153,-0.131,-0.103
'0:00.521',-0.053,-0.094,-0.041,0.074,-0.006,-0.067,0.013,-0.100,-0.156,-0.150,-0.131,-0.100
'0:00.522',-0.053,-0.095,-0.042,0.074,-0.006,-0.069,0.016,-0.097,-0.150,-0.150,-0.128,-0.100
'0:00.523',-0.053,-0.094,-0.041,0.074,-0.006,-0.067,0.019,-0.094,-0.150,-0.150,-0.125,-0.100
'0:00.524',-0.050,-0.094,-0.044,0.072,-0.003,-0.069,0.013,-0.088,-0.141,-0.150,-0.122,-0.100
'0:00.525',-0.050,-0.091,-0.041,0.071,-0.005,-0.066,0.013,-0.088,-0.144,-0.150,-0.125,-0.100
'0:00.526',-0.046,-0.084,-0.039,0.065,-0.004,-0.062,0.013,-0.091,-0.150,-0.153,-0.128,-0.103
'0:00.527',-0.044,-0.081,-0.037,0.063,-0.003,-0.059,0.013,-0.094,-0.150,-0.156,-0.131,-0.100
'0:00.528',-0.039,-0.077,-0.037,0.058,-0.001,-0.058,0.022,-0.094,-0.150,-0.147,-0.125,-0.097
'0:00.529',-0.038,-0.075,-0.037,0.056,0.000,-0.056,0.025,-0.088,-0.150,-0.144,-0.119,-0.094
'0:00.530',-0.041,-0.076,-0.036,0.059,-0.003,-0.056,0.025,-0.084,-0.150,-0.144,-0.119,-0.091
'0:00.531',-0.041,-0.078,-0.037,0.059,-0.002,-0.058,0.025,-0.081,-0.144,-0.144,-0.119,-0.087
'0:00.532',-0.039,-0.079,-0.040,0.059,0.000,-0.060,0.019,-0.078,-0.147,-0.141,-0.116,-0.091
'0:00.533',-0.038,-0.078,-0.041,0.058,0.001,-0.059,0.019,-0.081,-0.150,-0.137,-0.119,-0.094
'0:00.534',-0.044,-0.082,-0.039,0.063,-0.003,-0.061,0.022,-0.075,-0.141,-0.134,-0.112,-0.091
'0:00.535',-0.047,-0.081,-0.034,0.064,-0.006,-0.058,0.019,-0.075,-0.137,-0.137,-0.112,-0.094
'0:00.536',-0.047,-0.080,-0.033,0.064,-0.007,-0.057,0.022,-0.075,-0.137,-0.128,-0.109,-0.094
'0:00.537',-0.047,-0.078,-0.031,0.063,-0.008,-0.055,0.025,-0.075,-0.137,-0.125,-0.106,-0.094
'0:00.538',-0.042,-0.075,-0.033,0.059,-0.005,-0.054,0.022,-0.072,-0.125,-0.128,-0.109,-0.091
'0:00.539',-0.038,-0.075,-0.037,0.056,0.000,-0.056,0.019,-0.075,-0.119,-0.131,-0.112,-0.087
'0:00.540',-0.042,-0.078,-0.036,0.060,-0.003,-0.058,0.019,-0.075,-0.122,-0.131,-0.116,-0.087
'0:00.541',-0.041,-0.078,-0.037,0.059,-0.002,-0.058,0.019,-0.069,-0.119,-0.131,-0.119,-0.087
'0:00.542',-0.038,-0.078,-0.041,0.058,0.001,-0.059,0.019,-0.066,-0.122,-0.131,-0.112,-0.091
'0:00.543',-0.038,-0.075,-0.037,0.056,0.000,-0.056,0.019,-0.063,-0.125,-0.125,-0.112,-0.087
'0:00.544',-0.034,-0.074,-0.039,0.054,0.002,-0.057,0.019,-0.063,-0.122,-0.122,-0.112,-0.087
'0:00.545',-0.031,-0.072,-0.041,0.052,0.004,-0.056,0.019,-0.056,-0.119,-0.119,-0.112,-0.087
'0:00.546',-0.031,-0.068,-0.036,0.049,0.002,-0.052,0.019,-0.059,-0.116,-0.116,-0.103,-0.087
'0:00.547',-0.028,-0.066,-0.037,0.047,0.004,-0.052,0.019,-0.056,-0.119,-0.119,-0.100,-0.087
'0:00.548',-0.031,-0.063,-0.031,0.047,0.000,-0.047,0.019,-0.056,-0.122,-0.119,-0.100,-0.087
'0:00.549',-0.031,-0.059,-0.028,0.046,-0.002,-0.044,0.019,-0.056,-0.119,-0.119,-0.100,-0.087
'0:00.550',-0.034,-0.061,-0.026,0.047,-0.004,-0.044,0.022,-0.047,-0.112,-0.112,-0.094,-0.084
'0:00.551',-0.038,-0.066,-0.028,0.052,-0.005,-0.047,0.025,-0.044,-0.106,-0.100,-0.094,-0.075
'0:00.552',-0.036,-0.058,-0.022,0.047,-0.008,-0.040,0.031,-0.047,-0.100,-0.100,-0.091,-0.072
'0:00.553',-0.031,-0.050,-0.019,0.041,-0.006,-0.034,0.025,-0.044,-0.100,-0.100,-0.087,-0.069
'0:00.554',-0.030,-0.051,-0.021,0.041,-0.004,-0.036,0.025,-0.041,-0.094,-0.100,-0.084,-0.072
'0:00.555',-0.028,-0.053,-0.025,0.041,-0.002,-0.039,0.025,-0.031,-0.094,-0.094,-0.075,-0.075
'0:00.556',-0.026,-0.054,-0.028,0.041,0.001,-0.041,0.028,-0.031,-0.094,-0.094,-0.075,-0.072
'0:00.557',-0.028,-0.053,-0.025,0.041,-0.002,-0.039,0.031,-0.031,-0.088,-0.094,-0.075,-0.075
'0:00.558',-0.026,-0.051,-0.025,0.039,-0.001,-0.038,0.028,-0.025,-0.091,-0.094,-0.078,-0.075
'0:00.559',-0.025,-0.053,-0.028,0.039,0.001,-0.041,0.025,-0.025,-0.088,-0.087,-0.081,-0.075
'0:00.560',-0.028,-0.050,-0.022,0.039,-0.003,-0.036,0.022,-0.019,-0.091,-0.091,-0.078,-0.072
'0:00.561',-0.025,-0.050,-0.025,0.037,0.000,-0.037,0.019,-0.019,-0.088,-0.087,-0.081,-0.062
'0:00.562',-0.021,-0.046,-0.025,0.033,0.002,-0.036,0.019,-0.016,-0.084,-0.091,-0.075,-0.069
'0:00.563',-0.019,-0.044,-0.025,0.031,0.003,-0.034,0.019,-0.019,-0.081,-0.094,-0.075,-0.062
'0:00.564',-0.022,-0.045,-0.023,0.034,0.001,-0.034,0.022,-0.009,-0.081,-0.084,-0.075,-0.062
'0:00.565',-0.028,-0.050,-0.022,0.039,-0.003,-0.036,0.025,-0.006,-0.075,-0.081,-0.075,-0.062
'0:00.566',-0.031,-0.051,-0.020,0.041,-0.006,-0.036,0.028,0.000,-0.062,-0.075,-0.066,-0.062
'0:00.567',-0.031,-0.050,-0.019,0.041,-0.006,-0.034,0.031,0.000,-0.056,-0.075,-0.062,-0.056
'0:00.568',-0.034,-0.046,-0.011,0.040,-0.012,-0.029,0.031,0.006,-0.053,-0.069,-0.056,-0.053
'0:00.569',-0.031,-0.041,-0.009,0.036,-0.011,-0.025,0.031,0.012,-0.056,-0.069,-0.056,-0.050
'0:00.570',-0.024,-0.036,-0.013,0.030,-0.006,-0.024,0.031,0.012,-0.050,-0.069,-0.059,-0.047
'0:00.571',-0.022,-0.034,-0.013,0.028,-0.005,-0.024,0.031,0.019,-0.050,-0.062,-0.056,-0.050
'0:00.572',-0.016,-0.036,-0.020,0.026,0.002,-0.028,0.031,0.022,-0.050,-0.066,-0.056,-0.050
'0:00.573',-0.013,-0.034,-0.022,0.024,0.004,-0.028,0.031,0.019,-0.044,-0.062,-0.056,-0.050
'0:00.574',-0.011,-0.030,-0.019,0.021,0.004,-0.024,0.028,0.028,-0.041,-0.062,-0.053,-0.053
'0:00.575',-0.006,-0.025,-0.019,0.016,0.006,-0.022,0.025,0.031,-0.037,-0.056,-0.056,-0.050
'0:00.576',-0.002,-0.018,-0.016,0.010,0.007,-0.017,0.025,0.037,-0.041,-0.053,-0.050,-0.050
'0:00.577',0.000,-0.013,-0.013,0.006,0.006,-0.013,0.025,0.044,-0.037,-0.044,-0.050,-0.044
'0:00.578',-0.006,-0.011,-0.004,0.009,-0.001,-0.007,0.025,0.041,-0.031,-0.044,-0.047,-0.041
'0:00.579',-0.009,-0.013,-0.003,0.011,-0.003,-0.008,0.025,0.044,-0.025,-0.037,-0.038,-0.037
'0:00.580',-0.009,-0.013,-0.003,0.011,-0.003,-0.008,0.028,0.050,-0.019,-0.037,-0.038,-0.034
'0:00.581',-0.009,-0.013,-0.003,0.011,-0.003,-0.008,0.031,0.063,-0.012,-0.037,-0.038,-0.031
'0:00.582',-0.011,-0.014,-0.003,0.012,-0.004,-0.009,0.028,0.069,-0.006,-0.028,-0.028,-0.025
'0:00.583',-0.009,-0.013,-0.003,0.011,-0.003,-0.008,0.025,0.075,0.000,-0.025,-0.025,-0.025
'0:00.584',-0.003,-0.006,-0.003,0.005,0.000,-0.005,0.025,0.075,0.000,-0.022,-0.022,-0.028
'0:00.585',0.003,-0.003,-0.006,0.000,0.004,-0.005,0.025,0.081,0.006,-0.019,-0.025,-0.025
'0:00.586',0.003,0.003,0.000,-0.003,0.001,0.001,0.025,0.084,0.006,-0.022,-0.019,-0.025
'0:00.587',0.003,0.003,0.000,-0.003,0.001,0.001,0.025,0.088,0.013,-0.019,-0.019,-0.025
'0:00.588',0.002,0.003,0.001,-0.002,0.000,0.002,0.019,0.088,0.013,-0.019,-0.022,-0.022
'0:00.589',0.003,0.003,0.000,-0.003,0.001,0.001,0.025,0.094,0.013,-0.013,-0.019,-0.025
'0:00.590',0.003,0.002,-0.001,-0.002,0.002,0.000,0.022,0.106,0.022,-0.006,-0.016,-0.019
'0:00.591',0.003,0.003,0.000,-0.003,0.001,0.001,0.019,0.106,0.025,0.000,-0.019,-0.019
'0:00.592',0.009,0.008,-0.002,-0.008,0.006,0.002,0.019,0.112,0.031,0.003,-0.009,-0.019
'0:00.593',0.013,0.009,-0.003,-0.011,0.007,0.003,0.019,0.119,0.038,0.013,-0.006,-0.019
'0:00.594',0.014,0.009,-0.004,-0.011,0.009,0.002,0.019,0.125,0.047,0.009,0.003,-0.009
'0:00.595',0.019,0.016,-0.003,-0.017,0.011,0.006,0.019,0.131,0.056,0.013,0.013,-0.006
'0:00.596',0.019,0.019,0.000,-0.019,0.009,0.009,0.022,0.141,0.053,0.019,0.013,0.000
'0:00.597',0.019,0.022,0.003,-0.020,0.007,0.012,0.025,0.150,0.063,0.025,0.019,0.000
'0:00.598',0.017,0.024,0.006,-0.021,0.006,0.015,0.022,0.153,0.069,0.022,0.016,0.000
'0:00.599',0.016,0.025,0.009,-0.020,0.003,0.017,0.025,0.156,0.075,0.025,0.019,0.006
'0:00.600',0.019,0.034,0.016,-0.026,0.001,0.025,0.025,0.163,0.081,0.038,0.028,0.009
'0:00.601',0.022,0.041,0.019,-0.031,0.001,0.029,0.025,0.169,0.088,0.050,0.038,0.019
'0:00.602',0.023,0.048,0.025,-0.036,-0.001,0.036,0.025,0.175,0.084,0.050,0.034,0.022
'0:00.603',0.025,0.050,0.025,-0.038,0.000,0.037,0.025,0.187,0.094,0.056,0.038,0.019
'0:00.604',0.025,0.052,0.027,-0.038,-0.001,0.039,0.025,0.197,0.106,0.059,0.044,0.022
'0:00.605',0.025,0.050,0.025,-0.038,0.000,0.037,0.025,0.206,0.119,0.062,0.050,0.019
'0:00.606',0.033,0.055,0.023,-0.044,0.005,0.039,0.022,0.212,0.125,0.066,0.050,0.025
'0:00.607',0.037,0.056,0.019,-0.047,0.009,0.037,0.019,0.225,0.131,0.069,0.056,0.025
'0:00.608',0.039,0.061,0.022,-0.049,0.008,0.041,0.019,0.228,0.131,0.072,0.063,0.028
'0:00.609',0.044,0.066,0.022,-0.054,0.011,0.044,0.019,0.231,0.131,0.075,0.063,0.025
'0:00.610',0.041,0.063,0.022,-0.051,0.009,0.042,0.019,0.244,0.144,0.081,0.075,0.034
'0:00.611',0.044,0.066,0.022,-0.054,0.011,0.044,0.019,0.250,0.150,0.088,0.075,0.038
'0:00.612',0.046,0.072,0.026,-0.059,0.009,0.049,0.025,0.253,0.156,0.097,0.078,0.041
'0:00.613',0.047,0.075,0.028,-0.061,0.009,0.051,0.025,0.263,0.163,0.106,0.081,0.038
'0:00.614',0.047,0.077,0.030,-0.062,0.008,0.053,0.022,0.269,0.178,0.109,0.088,0.041
'0:00.615',0.050,0.081,0.031,-0.066,0.009,0.056,0.019,0.275,0.187,0.113,0.094,0.044
'0:00.616',0.053,0.084,0.031,-0.069,0.011,0.058,0.019,0.291,0.194,0.122,0.103,0.050
'0:00.617',0.053,0.087,0.034,-0.070,0.009,0.061,0.019,0.306,0.206,0.131,0.113,0.062
'0:00.618',0.056,0.097,0.041,-0.076,0.007,0.069,0.022,0.312,0.209,0.134,0.119,0.062
'0:00.619',0.062,0.103,0.041,-0.082,0.011,0.072,0.025,0.325,0.219,0.144,0.119,0.069
'0:00.620',0.067,0.109,0.043,-0.088,0.012,0.076,0.019,0.331,0.228,0.153,0.122,0.075
'0:00.621',0.069,0.119,0.050,-0.094,0.009,0.084,0.019,0.344,0.231,0.163,0.131,0.075
'0:00.622',0.073,0.122,0.049,-0.098,0.012,0.085,0.025,0.353,0.244,0.166,0.134,0.075
'0:00.623',0.078,0.128,0.050,-0.103,0.014,0.089,0.019,0.362,0.250,0.175,0.138,0.075
'0:00.624',0.081,0.137,0.056,-0.109,0.012,0.097,0.016,0.369,0.256,0.181,0.147,0.084
'0:00.625',0.084,0.144,0.059,-0.114,0.012,0.101,0.013,0.381,0.269,0.188,0.156,0.094
'0:00.626',0.091,0.151,0.061,-0.121,0.015,0.106,0.013,0.394,0.284,0.191,0.169,0.103
'0:00.627',0.097,0.156,0.059,-0.126,0.019,0.107,0.013,0.406,0.300,0.200,0.175,0.113
'0:00.628',0.099,0.161,0.062,-0.130,0.018,0.112,0.013,0.425,0.306,0.212,0.181,0.113
'0:00.629',0.100,0.166,0.066,-0.133,0.017,0.116,0.013,0.438,0.319,0.219,0.188,0.119
'0:00.630',0.100,0.167,0.067,-0.134,0.016,0.117,0.006,0.447,0.331,0.228,0.194,0.128
'0:00.631',0.103,0.175,0.072,-0.139,0.016,0.123,0.006,0.456,0.338,0.238,0.206,0.131
'0:00.632',0.109,0.179,0.070,-0.144,0.019,0.124,0.003,0.466,0.344,0.244,0.216,0.134
'0:00.633',0.116,0.187,0.072,-0.151,0.022,0.129,0.000,0.475,0.350,0.256,0.225,0.144
'0:00.634',0.116,0.192,0.077,-0.154,0.019,0.134,0.000,0.481,0.366,0.266,0.231,0.150
'0:00.635',0.119,0.197,0.078,-0.157,0.020,0.137,0.000,0.494,0.375,0.281,0.238,0.150
'0:00.636',0.119,0.200,0.081,-0.159,0.019,0.141,0.000,0.506,0.388,0.284,0.247,0.153
'0:00.637',0.119,0.203,0.084,-0.161,0.017,0.144,0.000,0.519,0.400,0.294,0.250,0.156
'0:00.638',0.125,0.206,0.081,-0.166,0.022,0.144,0.000,0.531,0.413,0.300,0.256,0.163
'0:00.639',0.131,0.212,0.081,-0.172,0.025,0.147,0.000,0.544,0.419,0.306,0.263,0.169
'0:00.640',0.131,0.220,0.089,-0.176,0.021,0.154,0.000,0.559,0.431,0.319,0.275,0.169
'0:00.641',0.134,0.228,0.094,-0.181,0.020,0.161,0.000,0.569,0.444,0.325,0.281,0.175
'0:00.642',0.141,0.236,0.095,-0.188,0.023,0.165,-0.003,0.575,0.447,0.334,0.284,0.178
'0:00.643',0.147,0.241,0.094,-0.194,0.026,0.167,0.000,0.575,0.456,0.338,0.294,0.181
'0:00.644',0.150,0.248,0.098,-0.199,0.026,0.173,-0.006,0.591,0.463,0.347,0.303,0.191
'0:00.645',0.153,0.253,0.100,-0.203,0.026,0.176,-0.006,0.606,0.475,0.363,0.313,0.200
'0:00.646',0.155,0.256,0.101,-0.206,0.027,0.179,-0.009,0.613,0.491,0.369,0.319,0.200
'0:00.647',0.156,0.266,0.109,-0.211,0.023,0.188,-0.012,0.625,0.500,0.375,0.325,0.206
'0:00.648',0.161,0.272,0.111,-0.216,0.024,0.191,-0.009,0.634,0.513,0.391,0.338,0.216
'0:00.649',0.166,0.275,0.109,-0.220,0.028,0.192,-0.006,0.650,0.525,0.400,0.350,0.225
'0:00.650',0.167,0.281,0.114,-0.224,0.027,0.197,-0.003,0.662,0.538,0.406,0.353,0.231
'0:00.651',0.169,0.287,0.119,-0.228,0.025,0.203,0.000,0.669,0.544,0.413,0.363,0.231
'0:00.652',0.172,0.291,0.119,-0.231,0.026,0.204,-0.009,0.675,0.550,0.416,0.366,0.238
'0:00.653',0.175,0.297,0.122,-0.236,0.026,0.209,-0.012,0.681,0.556,0.419,0.375,0.244
'0:00.654',0.175,0.302,0.127,-0.238,0.024,0.214,-0.012,0.688,0.562,0.431,0.381,0.247
'0:00.655',0.175,0.303,0.128,-0.239,0.023,0.216,-0.012,0.694,0.575,0.438,0.388,0.256
'0:00.656',0.179,0.311,0.131,-0.245,0.024,0.221,-0.012,0.706,0.578,0.444,0.388,0.256
'0:00.657',0.188,0.319,0.131,-0.253,0.028,0.225,-0.012,0.713,0.581,0.450,0.388,0.250
'0:00.658',0.188,0.328,0.141,-0.258,0.023,0.234,-0.009,0.719,0.594,0.453,0.394,0.256
'0:00.659',0.191,0.328,0.138,-0.259,0.026,0.232,-0.006,0.725,0.600,0.456,0.400,0.262
'0:00.660',0.191,0.325,0.134,-0.258,0.028,0.229,-0.006,0.731,0.606,0.463,0.406,0.272
'0:00.661',0.191,0.325,0.134,-0.258,0.028,0.229,-0.006,0.737,0.613,0.469,0.413,0.275
'0:00.662',0.191,0.332,0.142,-0.261,0.024,0.237,-0.006,0.747,0.622,0.472,0.413,0.275
'0:00.663',0.194,0.341,0.147,-0.267,0.023,0.244,-0.006,0.756,0.631,0.475,0.419,0.281
'0:00.664',0.192,0.341,0.148,-0.266,0.022,0.244,-0.006,0.753,0.634,0.484,0.428,0.287
'0:00.665',0.191,0.341,0.150,-0.266,0.020,0.245,-0.006,0.756,0.644,0.488,0.431,0.287
'0:00.666',0.195,0.345,0.150,-0.270,0.023,0.247,-0.006,0.766,0.644,0.494,0.438,0.294
'0:00.667',0.197,0.350,0.153,-0.273,0.022,0.251,-0.006,0.769,0.644,0.494,0.438,0.294
'0:00.668',0.200,0.357,0.157,-0.279,0.021,0.257,-0.009,0.769,0.650,0.503,0.441,0.294
'0:00.669',0.203,0.366,0.162,-0.284,0.020,0.264,-0.012,0.775,0.656,0.506,0.438,0.300
'0:00.670',0.202,0.366,0.164,-0.284,0.019,0.264,-0.012,0.775,0.656,0.506,0.441,0.303
'0:00.671',0.203,0.366,0.162,-0.284,0.020,0.264,-0.012,0.775,0.662,0.513,0.450,0.306
'0:00.672',0.202,0.369,0.167,-0.285,0.017,0.267,-0.012,0.775,0.662,0.519,0.456,0.309
'0:00.673',0.200,0.375,0.175,-0.288,0.012,0.275,-0.012,0.775,0.662,0.525,0.463,0.306
'0:00.674',0.204,0.384,0.180,-0.294,0.012,0.282,-0.009,0.775,0.659,0.525,0.463,0.306
'0:00.675',0.206,0.384,0.178,-0.295,0.014,0.281,-0.006,0.775,0.662,0.525,0.463,0.306
'0:00.676',0.203,0.384,0.181,-0.294,0.011,0.283,-0.009,0.766,0.666,0.528,0.463,0.309
'0:00.677',0.203,0.384,0.181,-0.294,0.011,0.283,-0.012,0.763,0.662,0.525,0.463,0.313
'0:00.678',0.204,0.386,0.182,-0.295,0.011,0.284,-0.006,0.759,0.659,0.525,0.466,0.319
'0:00.679',0.203,0.384,0.181,-0.294,0.011,0.283,-0.006,0.750,0.656,0.519,0.463,0.319
'0:00.680',0.201,0.384,0.183,-0.293,0.009,0.284,-0.006,0.747,0.653,0.513,0.459,0.319
'0:00.681',0.200,0.387,0.188,-0.294,0.006,0.288,-0.006,0.737,0.644,0.506,0.456,0.313
'0:00.682',0.199,0.389,0.190,-0.294,0.004,0.289,-0.009,0.728,0.638,0.503,0.453,0.316
'0:00.683',0.194,0.387,0.194,-0.291,0.000,0.291,-0.012,0.719,0.625,0.500,0.450,0.313
'0:00.684',0.188,0.386,0.199,-0.287,-0.006,0.292,-0.006,0.709,0.616,0.494,0.441,0.313
'0:00.685',0.184,0.378,0.194,-0.281,-0.005,0.286,-0.006,0.700,0.600,0.481,0.431,0.306
'0:00.686',0.175,0.372,0.197,-0.273,-0.011,0.284,-0.006,0.688,0.591,0.481,0.425,0.300
'0:00.687',0.169,0.366,0.197,-0.267,-0.014,0.281,0.000,0.669,0.575,0.475,0.413,0.294
'0:00.688',0.164,0.362,0.198,-0.263,-0.017,0.280,0.003,0.650,0.569,0.456,0.403,0.291
'0:00.689',0.156,0.356,0.200,-0.256,-0.022,0.278,0.006,0.637,0.556,0.444,0.394,0.287
'0:00.690',0.151,0.357,0.206,-0.254,-0.028,0.282,0.006,0.616,0.538,0.438,0.381,0.281
'0:00.691',0.147,0.356,0.209,-0.251,-0.031,0.283,0.000,0.594,0.525,0.425,0.375,0.269
'0:00.692',0.145,0.344,0.199,-0.244,-0.027,0.271,0.000,0.575,0.509,0.409,0.363,0.262
'0:00.693',0.141,0.334,0.194,-0.237,-0.027,0.264,0.006,0.556,0.494,0.400,0.350,0.256
'0:00.694',0.139,0.328,0.189,-0.233,-0.026,0.259,0.006,0.537,0.475,0.388,0.338,0.250
'0:00.695',0.134,0.319,0.184,-0.226,-0.025,0.251,0.006,0.519,0.456,0.375,0.325,0.238
'0:00.696',0.131,0.314,0.183,-0.223,-0.026,0.248,0.013,0.497,0.438,0.356,0.309,0.228
'0:00.697',0.128,0.306,0.178,-0.217,-0.025,0.242,0.013,0.481,0.419,0.344,0.300,0.225
'0:00.698',0.121,0.301,0.181,-0.211,-0.030,0.241,0.013,0.466,0.403,0.325,0.288,0.216
'0:00.699',0.112,0.287,0.175,-0.200,-0.031,0.231,0.019,0.444,0.388,0.306,0.275,0.213
'0:00.700',0.108,0.275,0.167,-0.191,-0.029,0.221,0.019,0.422,0.366,0.297,0.266,0.197
'0:00.701',0.103,0.266,0.162,-0.184,-0.030,0.214,0.019,0.400,0.350,0.287,0.256,0.188
'0:00.702',0.094,0.255,0.161,-0.174,-0.034,0.208,0.022,0.384,0.331,0.269,0.244,0.172
'0:00.703',0.088,0.247,0.159,-0.167,-0.036,0.203,0.025,0.362,0.313,0.256,0.231,0.163
'0:00.704',0.082,0.236,0.154,-0.159,-0.036,0.195,0.025,0.344,0.291,0.241,0.216,0.156
'0:00.705',0.078,0.222,0.144,-0.150,-0.033,0.182,0.031,0.325,0.275,0.225,0.200,0.144
'0:00.706',0.072,0.214,0.142,-0.143,-0.035,0.177,0.031,0.303,0.256,0.203,0.181,0.138
'0:00.707',0.069,0.206,0.138,-0.138,-0.034,0.172,0.031,0.287,0.238,0.188,0.175,0.125
'0:00.708',0.067,0.199,0.132,-0.133,-0.033,0.165,0.022,0.272,0.222,0.175,0.159,0.116
'0:00.709',0.062,0.184,0.122,-0.123,-0.030,0.153,0.019,0.256,0.200,0.163,0.138,0.100
'0:00.710',0.053,0.174,0.121,-0.113,-0.034,0.147,0.025,0.234,0.191,0.150,0.131,0.094
'0:00.711',0.047,0.159,0.113,-0.103,-0.033,0.136,0.025,0.219,0.175,0.137,0.119,0.087
'0:00.712',0.039,0.147,0.108,-0.093,-0.034,0.127,0.025,0.206,0.166,0.125,0.116,0.084
'0:00.713',0.028,0.137,0.109,-0.082,-0.041,0.123,0.025,0.187,0.156,0.113,0.106,0.075
'0:00.714',0.029,0.128,0.099,-0.079,-0.035,0.113,0.025,0.178,0.138,0.097,0.091,0.069
'0:00.715',0.031,0.122,0.091,-0.076,-0.030,0.106,0.025,0.163,0.125,0.081,0.081,0.056
'0:00.716',0.025,0.108,0.083,-0.066,-0.029,0.096,0.025,0.150,0.106,0.075,0.069,0.053
'0:00.717',0.022,0.100,0.078,-0.061,-0.028,0.089,0.025,0.138,0.088,0.062,0.063,0.050
'0:00.718',0.017,0.095,0.077,-0.056,-0.030,0.086,0.025,0.122,0.078,0.056,0.050,0.041
'0:00.719',0.009,0.087,0.078,-0.048,-0.034,0.082,0.025,0.106,0.069,0.056,0.044,0.031
'0:00.720',0.011,0.078,0.067,-0.044,-0.029,0.072,0.028,0.094,0.056,0.041,0.031,0.022
'0:00.721',0.006,0.072,0.066,-0.039,-0.030,0.069,0.031,0.081,0.050,0.031,0.025,0.019
'0:00.722',0.005,0.067,0.062,-0.036,-0.029,0.064,0.028,0.069,0.034,0.025,0.016,0.006
'0:00.723',-0.003,0.059,0.062,-0.028,-0.033,0.061,0.025,0.063,0.025,0.013,0.006,0.006
'0:00.724',-0.005,0.054,0.059,-0.024,-0.033,0.057,0.025,0.050,0.013,0.006,0.000,0.000
'0:00.725',-0.003,0.047,0.050,-0.022,-0.027,0.048,0.025,0.037,0.006,-0.006,-0.006,-0.006
'0:00.726',-0.006,0.042,0.049,-0.018,-0.028,0.046,0.028,0.031,-0.003,-0.016,-0.013,-0.009
'0:00.727',-0.006,0.034,0.041,-0.014,-0.024,0.037,0.031,0.019,-0.006,-0.025,-0.019,-0.012
'0:00.728',-0.007,0.030,0.038,-0.011,-0.023,0.034,0.031,0.009,-0.016,-0.028,-0.022,-0.016
'0:00.729',-0.013,0.022,0.034,-0.004,-0.024,0.028,0.031,0.000,-0.031,-0.031,-0.025,-0.025
'0:00.730',-0.009,0.020,0.029,-0.005,-0.019,0.024,0.031,-0.003,-0.047,-0.037,-0.041,-0.031
'0:00.731',-0.013,0.016,0.028,-0.001,-0.021,0.022,0.031,-0.012,-0.050,-0.044,-0.044,-0.037
'0:00.732',-0.013,0.005,0.018,0.004,-0.015,0.011,0.031,-0.012,-0.053,-0.056,-0.050,-0.037
'0:00.733',-0.013,-0.003,0.009,0.008,-0.011,0.003,0.031,-0.019,-0.056,-0.062,-0.056,-0.044
'0:00.734',-0.019,-0.014,0.005,0.016,-0.012,-0.004,0.031,-0.028,-0.062,-0.066,-0.062,-0.047
'0:00.735',-0.016,-0.019,-0.003,0.017,-0.006,-0.011,0.031,-0.037,-0.069,-0.069,-0.075,-0.050
'0:00.736',-0.017,-0.021,-0.003,0.019,-0.008,-0.012,0.031,-0.047,-0.078,-0.078,-0.075,-0.059
'0:00.737',-0.019,-0.025,-0.006,0.022,-0.006,-0.016,0.031,-0.056,-0.081,-0.081,-0.081,-0.062
'0:00.738',-0.023,-0.028,-0.005,0.026,-0.009,-0.017,0.034,-0.056,-0.088,-0.078,-0.081,-0.059
'0:00.739',-0.028,-0.031,-0.003,0.030,-0.012,-0.018,0.031,-0.063,-0.088,-0.081,-0.087,-0.062
'0:00.740',-0.028,-0.033,-0.005,0.031,-0.012,-0.019,0.031,-0.069,-0.100,-0.084,-0.081,-0.062
'0:00.741',-0.031,-0.034,-0.003,0.033,-0.014,-0.019,0.031,-0.069,-0.100,-0.081,-0.081,-0.069
'0:00.742',-0.034,-0.039,-0.004,0.037,-0.015,-0.022,0.031,-0.072,-0.097,-0.087,-0.081,-0.072
'0:00.743',-0.041,-0.044,-0.003,0.042,-0.019,-0.024,0.031,-0.075,-0.100,-0.087,-0.081,-0.075
'0:00.744',-0.041,-0.049,-0.008,0.045,-0.016,-0.029,0.028,-0.075,-0.103,-0.091,-0.078,-0.072
'0:00.745',-0.041,-0.050,-0.009,0.046,-0.016,-0.030,0.025,-0.075,-0.106,-0.094,-0.081,-0.069
'0:00.746',-0.038,-0.049,-0.011,0.043,-0.013,-0.030,0.031,-0.084,-0.116,-0.100,-0.081,-0.066
'0:00.747',-0.034,-0.047,-0.013,0.041,-0.011,-0.030,0.025,-0.094,-0.119,-0.100,-0.087,-0.069
'0:00.748',-0.033,-0.049,-0.016,0.041,-0.009,-0.032,0.028,-0.094,-0.119,-0.106,-0.094,-0.069
'0:00.749',-0.031,-0.047,-0.016,0.039,-0.008,-0.031,0.031,-0.100,-0.119,-0.106,-0.100,-0.075
'0:00.750',-0.034,-0.051,-0.017,0.043,-0.009,-0.034,0.019,-0.103,-0.119,-0.106,-0.103,-0.075
'0:00.751',-0.031,-0.050,-0.019,0.041,-0.006,-0.034,0.019,-0.106,-0.119,-0.106,-0.106,-0.075
'0:00.752',-0.034,-0.053,-0.019,0.044,-0.008,-0.036,0.019,-0.103,-0.125,-0.112,-0.106,-0.078
'0:00.753',-0.034,-0.053,-0.019,0.044,-0.008,-0.036,0.019,-0.100,-0.131,-0.119,-0.106,-0.081
'0:00.754',-0.034,-0.057,-0.023,0.046,-0.006,-0.041,0.016,-0.106,-0.128,-0.116,-0.109,-0.081
'0:00.755',-0.034,-0.063,-0.028,0.049,-0.003,-0.046,0.019,-0.106,-0.131,-0.119,-0.106,-0.081
'0:00.756',-0.036,-0.066,-0.030,0.051,-0.003,-0.048,0.019,-0.112,-0.131,-0.112,-0.106,-0.084
'0:00.757',-0.038,-0.066,-0.028,0.052,-0.005,-0.047,0.019,-0.119,-0.137,-0.119,-0.106,-0.087
'0:00.758',-0.042,-0.067,-0.025,0.054,-0.009,-0.046,0.019,-0.116,-0.141,-0.122,-0.106,-0.087
'0:00.759',-0.047,-0.069,-0.022,0.058,-0.012,-0.046,0.019,-0.119,-0.137,-0.125,-0.106,-0.087
'0:00.760',-0.048,-0.075,-0.027,0.062,-0.011,-0.051,0.019,-0.119,-0.137,-0.128,-0.106,-0.087
'0:00.761',-0.050,-0.081,-0.031,0.066,-0.009,-0.056,0.019,-0.119,-0.137,-0.131,-0.106,-0.087
'0:00.762',-0.053,-0.080,-0.027,0.067,-0.013,-0.054,0.022,-0.119,-0.141,-0.128,-0.106,-0.087
'0:00.763',-0.053,-0.078,-0.025,0.066,-0.014,-0.052,0.019,-0.119,-0.144,-0.125,-0.106,-0.087
'0:00.764',-0.049,-0.075,-0.026,0.062,-0.011,-0.051,0.013,-0.119,-0.144,-0.131,-0.112,-0.091
'0:00.765',-0.044,-0.069,-0.025,0.056,-0.009,-0.047,0.019,-0.125,-0.144,-0.131,-0.119,-0.087
'0:00.766',-0.034,-0.071,-0.036,0.052,0.001,-0.054,0.022,-0.125,-0.150,-0.131,-0.116,-0.091
'0:00.767',-0.034,-0.066,-0.031,0.050,-0.002,-0.049,0.019,-0.125,-0.150,-0.131,-0.119,-0.094
'0:00.768',-0.036,-0.068,-0.032,0.052,-0.002,-0.050,0.019,-0.125,-0.150,-0.137,-0.119,-0.097
'0:00.769',-0.034,-0.066,-0.031,0.050,-0.002,-0.049,0.019,-0.125,-0.150,-0.137,-0.119,-0.100
'0:00.770',-0.033,-0.058,-0.025,0.046,-0.004,-0.042,0.019,-0.125,-0.147,-0.141,-0.116,-0.100
'0:00.771',-0.034,-0.053,-0.019,0.044,-0.008,-0.036,0.019,-0.131,-0.144,-0.137,-0.112,-0.100
'0:00.772',-0.034,-0.055,-0.021,0.045,-0.007,-0.038,0.016,-0.128,-0.144,-0.137,-0.116,-0.097
'0:00.773',-0.034,-0.053,-0.019,0.044,-0.008,-0.036,0.013,-0.125,-0.144,-0.137,-0.119,-0.094
'0:00.774',-0.038,-0.056,-0.019,0.047,-0.009,-0.037,0.016,-0.125,-0.144,-0.137,-0.119,-0.097
'0:00.775',-0.041,-0.059,-0.019,0.050,-0.011,-0.039,0.019,-0.125,-0.144,-0.137,-0.119,-0.100
'0:00.776',-0.041,-0.061,-0.020,0.051,-0.011,-0.041,0.016,-0.119,-0.144,-0.131,-0.109,-0.094
'0:00.777',-0.041,-0.063,-0.022,0.052,-0.009,-0.043,0.013,-0.119,-0.144,-0.137,-0.112,-0.094
'0:00.778',-0.044,-0.064,-0.020,0.054,-0.012,-0.042,0.013,-0.125,-0.144,-0.141,-0.109,-0.097
'0:00.779',-0.044,-0.066,-0.022,0.055,-0.011,-0.044,0.013,-0.125,-0.144,-0.144,-0.106,-0.094
'0:00.780',-0.047,-0.063,-0.016,0.055,-0.016,-0.039,0.013,-0.128,-0.147,-0.141,-0.109,-0.097
'0:00.781',-0.050,-0.063,-0.013,0.056,-0.019,-0.037,0.013,-0.131,-0.150,-0.137,-0.106,-0.100
'0:00.782',-0.050,-0.069,-0.019,0.059,-0.016,-0.044,0.009,-0.125,-0.147,-0.137,-0.112,-0.094
'0:00.783',-0.053,-0.069,-0.016,0.061,-0.019,-0.043,0.006,-0.125,-0.144,-0.137,-0.112,-0.094
'0:00.784',-0.050,-0.069,-0.019,0.059,-0.016,-0.044,0.006,-0.125,-0.147,-0.134,-0.119,-0.097
'0:00.785',-0.050,-0.069,-0.019,0.059,-0.016,-0.044,0.006,-0.125,-0.144,-0.131,-0.119,-0.100
'0:00.786',-0.047,-0.069,-0.022,0.058,-0.012,-0.046,0.006,-0.128,-0.153,-0.134,-0.119,-0.100
'0:00.787',-0.044,-0.069,-0.025,0.056,-0.009,-0.047,0.006,-0.131,-0.156,-0.137,-0.119,-0.100
'0:00.788',-0.042,-0.069,-0.026,0.056,-0.008,-0.048,0.006,-0.134,-0.150,-0.131,-0.119,-0.097
'0:00.789',-0.041,-0.069,-0.028,0.055,-0.006,-0.049,0.006,-0.131,-0.150,-0.131,-0.119,-0.094
'0:00.790',-0.042,-0.069,-0.027,0.056,-0.008,-0.048,0.009,-0.138,-0.153,-0.131,-0.119,-0.094
'0:00.791',-0.047,-0.069,-0.022,0.058,-0.012,-0.046,0.013,-0.131,-0.156,-0.131,-0.119,-0.094
'0:00.792',-0.048,-0.069,-0.021,0.059,-0.014,-0.045,0.009,-0.128,-0.150,-0.131,-0.119,-0.097
'0:00.793',-0.047,-0.069,-0.022,0.058,-0.012,-0.046,0.006,-0.125,-0.156,-0.131,-0.119,-0.100
'0:00.794',-0.044,-0.058,-0.014,0.051,-0.015,-0.036,0.009,-0.128,-0.150,-0.134,-0.116,-0.097
'0:00.795',-0.041,-0.053,-0.013,0.047,-0.014,-0.033,0.013,-0.131,-0.156,-0.137,-0.112,-0.094
'0:00.796',-0.044,-0.056,-0.013,0.050,-0.016,-0.034,0.016,-0.131,-0.150,-0.134,-0.112,-0.091
'0:00.797',-0.041,-0.056,-0.016,0.049,-0.012,-0.036,0.019,-0.131,-0.144,-0.131,-0.112,-0.087
'0:00.798',-0.041,-0.053,-0.013,0.047,-0.014,-0.033,0.019,-0.131,-0.147,-0.131,-0.116,-0.091
'0:00.799',-0.041,-0.053,-0.013,0.047,-0.014,-0.033,0.019,-0.131,-0.150,-0.131,-0.119,-0.094
'0:00.800',-0.041,-0.054,-0.014,0.047,-0.014,-0.034,0.013,-0.131,-0.150,-0.134,-0.116,-0.094
'0:00.801',-0.041,-0.056,-0.016,0.049,-0.012,-0.036,0.013,-0.138,-0.150,-0.137,-0.112,-0.094
'0:00.802',-0.041,-0.053,-0.013,0.047,-0.014,-0.033,0.016,-0.131,-0.150,-0.134,-0.116,-0.091
'0:00.803',-0.041,-0.053,-0.013,0.047,-0.014,-0.033,0.013,-0.131,-0.150,-0.131,-0.112,-0.087
'0:00.804',-0.041,-0.059,-0.019,0.050,-0.011,-0.039,0.016,-0.131,-0.141,-0.128,-0.112,-0.087
'0:00.805',-0.044,-0.063,-0.019,0.053,-0.012,-0.041,0.019,-0.131,-0.137,-0.125,-0.112,-0.087
'0:00.806',-0.048,-0.066,-0.018,0.057,-0.016,-0.042,0.019,-0.131,-0.137,-0.128,-0.116,-0.081
'0:00.807',-0.047,-0.066,-0.019,0.056,-0.014,-0.043,0.019,-0.131,-0.137,-0.131,-0.119,-0.087
'0:00.808',-0.042,-0.066,-0.023,0.054,-0.010,-0.044,0.016,-0.125,-0.137,-0.125,-0.119,-0.081
'0:00.809',-0.041,-0.066,-0.025,0.053,-0.008,-0.046,0.013,-0.131,-0.137,-0.125,-0.119,-0.087
'0:00.810',-0.036,-0.063,-0.026,0.049,-0.005,-0.044,0.016,-0.131,-0.141,-0.125,-0.116,-0.084
'0:00.811',-0.038,-0.066,-0.028,0.052,-0.005,-0.047,0.019,-0.131,-0.144,-0.125,-0.112,-0.087
'0:00.812',-0.045,-0.068,-0.023,0.056,-0.011,-0.045,0.019,-0.131,-0.141,-0.125,-0.112,-0.087
'0:00.813',-0.047,-0.063,-0.016,0.055,-0.016,-0.039,0.019,-0.125,-0.131,-0.125,-0.112,-0.087
'0:00.814',-0.047,-0.059,-0.013,0.053,-0.018,-0.036,0.016,-0.122,-0.137,-0.134,-0.109,-0.081
'0:00.815',-0.047,-0.059,-0.013,0.053,-0.018,-0.036,0.013,-0.119,-0.137,-0.131,-0.106,-0.081
'0:00.816',-0.044,-0.063,-0.019,0.053,-0.012,-0.041,0.016,-0.119,-0.137,-0.131,-0.109,-0.084
'0:00.817',-0.038,-0.063,-0.025,0.050,-0.006,-0.044,0.013,-0.119,-0.137,-0.131,-0.112,-0.081
'0:00.818',-0.034,-0.052,-0.018,0.043,-0.009,-0.035,0.016,-0.119,-0.141,-0.128,-0.112,-0.078
'0:00.819',-0.034,-0.044,-0.009,0.039,-0.012,-0.027,0.019,-0.119,-0.144,-0.125,-0.112,-0.075
'0:00.820',-0.034,-0.044,-0.009,0.039,-0.012,-0.027,0.013,-0.119,-0.137,-0.128,-0.112,-0.075
'0:00.821',-0.034,-0.044,-0.009,0.039,-0.012,-0.027,0.013,-0.119,-0.144,-0.131,-0.112,-0.075
'0:00.822',-0.031,-0.047,-0.016,0.039,-0.008,-0.031,0.019,-0.119,-0.141,-0.131,-0.116,-0.078
'0:00.823',-0.034,-0.044,-0.009,0.039,-0.012,-0.027,0.013,-0.119,-0.144,-0.131,-0.119,-0.081
'0:00.824',-0.034,-0.045,-0.011,0.040,-0.012,-0.028,0.013,-0.119,-0.141,-0.131,-0.112,-0.081
'0:00.825',-0.034,-0.047,-0.013,0.041,-0.011,-0.030,0.013,-0.119,-0.137,-0.131,-0.112,-0.081
'0:00.826',-0.036,-0.049,-0.013,0.042,-0.011,-0.031,0.016,-0.122,-0.137,-0.128,-0.112,-0.081
'0:00.827',-0.038,-0.047,-0.009,0.042,-0.014,-0.028,0.013,-0.119,-0.137,-0.119,-0.112,-0.081
'0:00.828',-0.038,-0.048,-0.011,0.043,-0.014,-0.029,0.013,-0.119,-0.141,-0.122,-0.109,-0.084
'0:00.829',-0.034,-0.050,-0.016,0.042,-0.009,-0.033,0.013,-0.119,-0.144,-0.125,-0.106,-0.087
'0:00.830',-0.038,-0.056,-0.019,0.047,-0.009,-0.037,0.016,-0.119,-0.141,-0.125,-0.106,-0.084
'0:00.831',-0.041,-0.059,-0.019,0.050,-0.011,-0.039,0.019,-0.119,-0.137,-0.125,-0.106,-0.081
'0:00.832',-0.042,-0.061,-0.019,0.051,-0.012,-0.040,0.013,-0.119,-0.137,-0.131,-0.116,-0.081
'0:00.833',-0.044,-0.063,-0.019,0.053,-0.012,-0.041,0.019,-0.119,-0.137,-0.125,-0.112,-0.081
'0:00.834',-0.039,-0.061,-0.022,0.051,-0.009,-0.042,0.019,-0.119,-0.137,-0.125,-0.112,-0.084
'0:00.835',-0.038,-0.056,-0.019,0.047,-0.009,-0.037,0.019,-0.119,-0.137,-0.125,-0.112,-0.087
'0:00.836',-0.038,-0.053,-0.016,0.046,-0.011,-0.034,0.019,-0.122,-0.137,-0.125,-0.112,-0.078
'0:00.837',-0.038,-0.050,-0.013,0.044,-0.012,-0.031,0.019,-0.125,-0.137,-0.125,-0.112,-0.081
'0:00.838',-0.036,-0.050,-0.014,0.043,-0.011,-0.032,0.016,-0.125,-0.141,-0.131,-0.109,-0.084
'0:00.839',-0.038,-0.050,-0.013,0.044,-0.012,-0.031,0.019,-0.125,-0.144,-0.131,-0.106,-0.087
'0:00.840',-0.039,-0.051,-0.013,0.045,-0.013,-0.032,0.025,-0.122,-0.144,-0.131,-0.106,-0.078
'0:00.841',-0.041,-0.056,-0.016,0.049,-0.012,-0.036,0.025,-0.119,-0.144,-0.131,-0.106,-0.081
'0:00.842',-0.036,-0.053,-0.017,0.045,-0.010,-0.035,0.025,-0.119,-0.141,-0.122,-0.103,-0.081
'0:00.843',-0.034,-0.050,-0.016,0.042,-0.009,-0.033,0.025,-0.119,-0.137,-0.119,-0.100,-0.081
'0:00.844',-0.031,-0.051,-0.020,0.041,-0.006,-0.036,0.028,-0.119,-0.134,-0.125,-0.097,-0.081
'0:00.845',-0.034,-0.053,-0.019,0.044,-0.008,-0.036,0.025,-0.112,-0.137,-0.125,-0.094,-0.081
'0:00.846',-0.039,-0.053,-0.014,0.046,-0.012,-0.034,0.022,-0.116,-0.137,-0.128,-0.100,-0.081
'0:00.847',-0.044,-0.056,-0.013,0.050,-0.016,-0.034,0.019,-0.119,-0.137,-0.131,-0.094,-0.081
'0:00.848',-0.042,-0.056,-0.014,0.049,-0.014,-0.035,0.016,-0.119,-0.137,-0.131,-0.103,-0.078
'0:00.849',-0.041,-0.056,-0.016,0.049,-0.012,-0.036,0.019,-0.119,-0.137,-0.131,-0.106,-0.075
'0:00.850',-0.039,-0.059,-0.020,0.049,-0.010,-0.040,0.019,-0.112,-0.137,-0.128,-0.100,-0.075
'0:00.851',-0.034,-0.056,-0.022,0.046,-0.006,-0.039,0.019,-0.119,-0.137,-0.125,-0.100,-0.075
'0:00.852',-0.034,-0.053,-0.019,0.044,-0.008,-0.036,0.019,-0.119,-0.134,-0.125,-0.103,-0.078
'0:00.853',-0.034,-0.056,-0.022,0.046,-0.006,-0.039,0.019,-0.119,-0.131,-0.125,-0.100,-0.081
'0:00.854',-0.034,-0.055,-0.021,0.045,-0.007,-0.038,0.016,-0.119,-0.141,-0.131,-0.100,-0.078
'0:00.855',-0.038,-0.056,-0.019,0.047,-0.009,-0.037,0.013,-0.119,-0.144,-0.131,-0.100,-0.075
'0:00.856',-0.041,-0.064,-0.023,0.052,-0.009,-0.044,0.013,-0.116,-0.141,-0.131,-0.100,-0.078
'0:00.857',-0.044,-0.066,-0.022,0.055,-0.011,-0.044,0.013,-0.112,-0.137,-0.131,-0.100,-0.081
'0:00.858',-0.042,-0.061,-0.019,0.052,-0.011,-0.041,0.016,-0.119,-0.137,-0.131,-0.100,-0.081
'0:00.859',-0.044,-0.063,-0.019,0.053,-0.012,-0.041,0.019,-0.119,-0.137,-0.131,-0.100,-0.081
'0:00.860',-0.041,-0.066,-0.025,0.053,-0.008,-0.046,0.019,-0.119,-0.137,-0.131,-0.100,-0.081
'0:00.861',-0.038,-0.066,-0.028,0.052,-0.005,-0.047,0.019,-0.119,-0.137,-0.131,-0.100,-0.081
'0:00.862',-0.038,-0.064,-0.027,0.051,-0.006,-0.046,0.019,-0.119,-0.134,-0.137,-0.100,-0.091
'0:00.863',-0.041,-0.066,-0.025,0.053,-0.008,-0.046,0.019,-0.119,-0.137,-0.131,-0.100,-0.094
'0:00.864',-0.044,-0.064,-0.021,0.054,-0.012,-0.043,0.019,-0.119,-0.141,-0.128,-0.106,-0.094
'0:00.865',-0.044,-0.066,-0.022,0.055,-0.011,-0.044,0.019,-0.119,-0.144,-0.125,-0.106,-0.094
'0:00.866',-0.039,-0.061,-0.022,0.051,-0.009,-0.042,0.019,-0.119,-0.144,-0.131,-0.106,-0.094
'0:00.867',-0.034,-0.056,-0.022,0.046,-0.006,-0.039,0.019,-0.119,-0.144,-0.131,-0.106,-0.087
'0:00.868',-0.034,-0.056,-0.022,0.046,-0.006,-0.039,0.019,-0.125,-0.144,-0.131,-0.112,-0.087
'0:00.869',-0.034,-0.056,-0.022,0.046,-0.006,-0.039,0.019,-0.125,-0.144,-0.131,-0.119,-0.094
'0:00.870',-0.036,-0.057,-0.022,0.047,-0.007,-0.040,0.019,-0.125,-0.144,-0.131,-0.116,-0.091
'0:00.871',-0.034,-0.059,-0.025,0.047,-0.005,-0.043,0.019,-0.125,-0.144,-0.131,-0.112,-0.087
'0:00.872',-0.033,-0.063,-0.030,0.047,-0.001,-0.046,0.016,-0.125,-0.153,-0.137,-0.116,-0.087
'0:00.873',-0.034,-0.066,-0.031,0.050,-0.002,-0.049,0.013,-0.125,-0.156,-0.137,-0.119,-0.087
'0:00.874',-0.034,-0.067,-0.033,0.051,-0.001,-0.050,0.016,-0.128,-0.156,-0.141,-0.119,-0.087
'0:00.875',-0.034,-0.066,-0.031,0.050,-0.002,-0.049,0.019,-0.125,-0.156,-0.144,-0.119,-0.087
'0:00.876',-0.036,-0.067,-0.031,0.051,-0.003,-0.049,0.019,-0.125,-0.153,-0.134,-0.116,-0.084
'0:00.877',-0.038,-0.072,-0.034,0.055,-0.002,-0.053,0.019,-0.125,-0.150,-0.137,-0.119,-0.081
'0:00.878',-0.041,-0.078,-0.037,0.059,-0.002,-0.058,0.019,-0.128,-0.159,-0.137,-0.119,-0.084
'0:00.879',-0.047,-0.084,-0.037,0.066,-0.005,-0.061,0.019,-0.131,-0.162,-0.137,-0.119,-0.087
'0:00.880',-0.051,-0.084,-0.033,0.068,-0.009,-0.059,0.016,-0.141,-0.159,-0.137,-0.119,-0.091
'0:00.881',-0.053,-0.084,-0.031,0.069,-0.011,-0.058,0.013,-0.144,-0.156,-0.144,-0.119,-0.094
'0:00.882',-0.049,-0.077,-0.028,0.063,-0.011,-0.053,0.016,-0.144,-0.156,-0.147,-0.119,-0.091
'0:00.883',-0.047,-0.075,-0.028,0.061,-0.009,-0.052,0.019,-0.144,-0.162,-0.150,-0.119,-0.087
'0:00.884',-0.047,-0.072,-0.025,0.059,-0.011,-0.049,0.019,-0.144,-0.166,-0.147,-0.116,-0.087
'0:00.885',-0.044,-0.069,-0.025,0.056,-0.009,-0.047,0.019,-0.150,-0.169,-0.150,-0.119,-0.094
'0:00.886',-0.044,-0.076,-0.033,0.060,-0.006,-0.054,0.016,-0.153,-0.172,-0.153,-0.122,-0.094
'0:00.887',-0.041,-0.072,-0.031,0.056,-0.005,-0.052,0.013,-0.156,-0.169,-0.156,-0.125,-0.094
'0:00.888',-0.039,-0.075,-0.036,0.058,-0.002,-0.056,0.013,-0.153,-0.169,-0.156,-0.125,-0.097
'0:00.889',-0.041,-0.078,-0.037,0.059,-0.002,-0.058,0.013,-0.150,-0.169,-0.156,-0.125,-0.100
'0:00.890',-0.041,-0.077,-0.036,0.059,-0.003,-0.057,0.016,-0.150,-0.172,-0.159,-0.125,-0.097
'0:00.891',-0.041,-0.072,-0.031,0.056,-0.005,-0.052,0.019,-0.156,-0.175,-0.156,-0.131,-0.094
'0:00.892',-0.042,-0.071,-0.029,0.056,-0.007,-0.050,0.019,-0.147,-0.175,-0.156,-0.128,-0.100
'0:00.893',-0.044,-0.072,-0.028,0.058,-0.008,-0.050,0.019,-0.150,-0.175,-0.156,-0.125,-0.100
'0:00.894',-0.042,-0.072,-0.029,0.058,-0.007,-0.051,0.022,-0.150,-0.181,-0.156,-0.128,-0.091
'0:00.895',-0.041,-0.075,-0.034,0.058,-0.003,-0.055,0.025,-0.150,-0.175,-0.156,-0.131,-0.094
'0:00.896',-0.044,-0.072,-0.028,0.058,-0.008,-0.050,0.025,-0.150,-0.172,-0.159,-0.131,-0.094
'0:00.897',-0.041,-0.072,-0.031,0.056,-0.005,-0.052,0.025,-0.150,-0.175,-0.162,-0.131,-0.094
'0:00.898',-0.034,-0.078,-0.044,0.056,0.004,-0.061,0.025,-0.150,-0.175,-0.159,-0.134,-0.087
'0:00.899',-0.034,-0.081,-0.047,0.058,0.006,-0.064,0.025,-0.156,-0.175,-0.156,-0.137,-0.087
'0:00.900',-0.033,-0.081,-0.048,0.058,0.007,-0.065,0.022,-0.163,-0.178,-0.162,-0.141,-0.094
'0:00.901',-0.028,-0.081,-0.053,0.055,0.012,-0.067,0.019,-0.169,-0.187,-0.162,-0.144,-0.094
'0:00.902',-0.031,-0.081,-0.050,0.056,0.009,-0.066,0.022,-0.169,-0.187,-0.162,-0.144,-0.097
'0:00.903',-0.034,-0.088,-0.053,0.061,0.009,-0.071,0.025,-0.169,-0.187,-0.162,-0.144,-0.100
'0:00.904',-0.041,-0.095,-0.054,0.068,0.007,-0.075,0.025,-0.175,-0.187,-0.166,-0.144,-0.100
'0:00.905',-0.044,-0.100,-0.056,0.072,0.006,-0.078,0.025,-0.169,-0.187,-0.169,-0.144,-0.100
'0:00.906',-0.044,-0.103,-0.059,0.074,0.007,-0.081,0.025,-0.166,-0.187,-0.166,-0.147,-0.100
'0:00.907',-0.044,-0.103,-0.059,0.074,0.007,-0.081,0.025,-0.169,-0.187,-0.169,-0.144,-0.100
'0:00.908',-0.044,-0.102,-0.058,0.073,0.007,-0.080,0.025,-0.169,-0.194,-0.172,-0.144,-0.100
'0:00.909',-0.047,-0.100,-0.053,0.074,0.003,-0.077,0.025,-0.169,-0.194,-0.175,-0.144,-0.100
'0:00.910',-0.047,-0.103,-0.056,0.075,0.004,-0.080,0.025,-0.169,-0.194,-0.175,-0.144,-0.100
'0:00.911',-0.047,-0.103,-0.056,0.075,0.004,-0.080,0.025,-0.169,-0.194,-0.175,-0.144,-0.100
'0:00.912',-0.047,-0.102,-0.055,0.074,0.004,-0.079,0.022,-0.169,-0.194,-0.175,-0.150,-0.097
'0:00.913',-0.047,-0.100,-0.053,0.074,0.003,-0.077,0.019,-0.175,-0.194,-0.175,-0.150,-0.094
'0:00.914',-0.042,-0.099,-0.056,0.071,0.007,-0.078,0.019,-0.175,-0.194,-0.175,-0.150,-0.100
'0:00.915',-0.038,-0.094,-0.056,0.066,0.009,-0.075,0.019,-0.175,-0.194,-0.175,-0.150,-0.100
'0:00.916',-0.038,-0.092,-0.055,0.065,0.009,-0.074,0.019,-0.175,-0.197,-0.175,-0.153,-0.097
'0:00.917',-0.038,-0.091,-0.053,0.064,0.007,-0.072,0.019,-0.175,-0.200,-0.175,-0.156,-0.100
'0:00.918',-0.042,-0.092,-0.050,0.067,0.004,-0.071,0.013,-0.178,-0.197,-0.181,-0.156,-0.106
'0:00.919',-0.041,-0.091,-0.050,0.066,0.004,-0.071,0.019,-0.181,-0.194,-0.181,-0.156,-0.100
'0:00.920',-0.042,-0.092,-0.050,0.067,0.004,-0.071,0.016,-0.184,-0.197,-0.184,-0.153,-0.106
'0:00.921',-0.044,-0.094,-0.050,0.069,0.003,-0.072,0.019,-0.187,-0.194,-0.187,-0.150,-0.106
'0:00.922',-0.045,-0.100,-0.055,0.073,0.005,-0.078,0.016,-0.181,-0.194,-0.187,-0.150,-0.103
'0:00.923',-0.047,-0.106,-0.059,0.077,0.006,-0.083,0.019,-0.175,-0.194,-0.187,-0.150,-0.100
'0:00.924',-0.050,-0.099,-0.049,0.074,-0.001,-0.074,0.013,-0.172,-0.197,-0.187,-0.150,-0.103
'0:00.925',-0.050,-0.100,-0.050,0.075,0.000,-0.075,0.019,-0.169,-0.200,-0.187,-0.150,-0.106
'0:00.926',-0.048,-0.104,-0.056,0.076,0.004,-0.081,0.022,-0.169,-0.194,-0.184,-0.150,-0.103
'0:00.927',-0.050,-0.112,-0.062,0.081,0.006,-0.088,0.019,-0.175,-0.194,-0.187,-0.150,-0.100
'0:00.928',-0.050,-0.116,-0.066,0.083,0.007,-0.091,0.019,-0.178,-0.197,-0.187,-0.150,-0.103
'0:00.929',-0.050,-0.112,-0.062,0.081,0.006,-0.088,0.019,-0.181,-0.200,-0.187,-0.156,-0.106
'0:00.930',-0.049,-0.106,-0.057,0.077,0.004,-0.082,0.013,-0.181,-0.203,-0.187,-0.147,-0.103
'0:00.931',-0.050,-0.106,-0.056,0.078,0.003,-0.081,0.006,-0.181,-0.200,-0.187,-0.150,-0.100
'0:00.932',-0.050,-0.109,-0.059,0.080,0.004,-0.084,0.019,-0.181,-0.206,-0.184,-0.150,-0.100
'0:00.933',-0.050,-0.109,-0.059,0.080,0.004,-0.084,0.019,-0.181,-0.206,-0.181,-0.150,-0.106
'0:00.934',-0.049,-0.111,-0.062,0.080,0.006,-0.086,0.016,-0.178,-0.206,-0.181,-0.153,-0.100
'0:00.935',-0.047,-0.109,-0.062,0.078,0.007,-0.086,0.019,-0.181,-0.206,-0.181,-0.156,-0.106
'0:00.936',-0.047,-0.112,-0.066,0.080,0.009,-0.089,0.016,-0.184,-0.206,-0.181,-0.156,-0.106
'0:00.937',-0.047,-0.112,-0.066,0.080,0.009,-0.089,0.019,-0.187,-0.206,-0.181,-0.156,-0.106
'0:00.938',-0.048,-0.116,-0.067,0.082,0.009,-0.092,0.019,-0.181,-0.206,-0.184,-0.153,-0.100
'0:00.939',-0.050,-0.116,-0.066,0.083,0.007,-0.091,0.025,-0.181,-0.206,-0.187,-0.150,-0.100
'0:00.940',-0.049,-0.111,-0.062,0.080,0.007,-0.087,0.025,-0.187,-0.206,-0.191,-0.150,-0.109
'0:00.941',-0.050,-0.109,-0.059,0.080,0.004,-0.084,0.025,-0.181,-0.206,-0.194,-0.150,-0.106
'0:00.942',-0.050,-0.111,-0.061,0.081,0.006,-0.086,0.022,-0.181,-0.203,-0.191,-0.153,-0.106
'0:00.943',-0.050,-0.109,-0.059,0.080,0.004,-0.084,0.019,-0.181,-0.200,-0.187,-0.156,-0.106
'0:00.944',-0.050,-0.112,-0.062,0.081,0.006,-0.088,0.019,-0.184,-0.203,-0.187,-0.156,-0.103
'0:00.945',-0.050,-0.112,-0.062,0.081,0.006,-0.088,0.019,-0.181,-0.206,-0.187,-0.156,-0.106
'0:00.946',-0.051,-0.109,-0.058,0.081,0.003,-0.084,0.016,-0.184,-0.212,-0.194,-0.159,-0.106
'0:00.947',-0.053,-0.109,-0.056,0.081,0.001,-0.083,0.013,-0.187,-0.206,-0.194,-0.162,-0.106
'0:00.948',-0.050,-0.112,-0.062,0.081,0.006,-0.088,0.013,-0.194,-0.206,-0.194,-0.159,-0.106
'0:00.949',-0.050,-0.109,-0.059,0.080,0.004,-0.084,0.006,-0.194,-0.212,-0.194,-0.156,-0.106
'0:00.950',-0.047,-0.111,-0.064,0.079,0.008,-0.088,0.013,-0.194,-0.212,-0.191,-0.153,-0.106
'0:00.951',-0.050,-0.112,-0.062,0.081,0.006,-0.088,0.013,-0.194,-0.212,-0.187,-0.150,-0.106
'0:00.952',-0.051,-0.116,-0.064,0.084,0.006,-0.090,0.016,-0.194,-0.212,-0.187,-0.159,-0.113
'0:00.953',-0.053,-0.119,-0.066,0.086,0.006,-0.093,0.019,-0.194,-0.212,-0.187,-0.162,-0.119
'0:00.954',-0.050,-0.117,-0.067,0.084,0.008,-0.092,0.013,-0.191,-0.216,-0.187,-0.159,-0.119
'0:00.955',-0.050,-0.122,-0.072,0.086,0.011,-0.097,0.013,-0.194,-0.219,-0.187,-0.162,-0.119
'0:00.956',-0.050,-0.123,-0.073,0.087,0.011,-0.098,0.019,-0.191,-0.216,-0.187,-0.156,-0.119
'0:00.957',-0.053,-0.125,-0.072,0.089,0.009,-0.099,0.019,-0.194,-0.212,-0.187,-0.150,-0.119
'0:00.958',-0.053,-0.122,-0.069,0.087,0.007,-0.096,0.019,-0.197,-0.212,-0.191,-0.159,-0.119
'0:00.959',-0.053,-0.122,-0.069,0.087,0.007,-0.096,0.019,-0.194,-0.212,-0.194,-0.156,-0.119
'0:00.960',-0.054,-0.128,-0.074,0.091,0.009,-0.101,0.019,-0.194,-0.212,-0.194,-0.162,-0.116
'0:00.961',-0.056,-0.128,-0.072,0.092,0.007,-0.100,0.019,-0.194,-0.212,-0.194,-0.162,-0.113
'0:00.962',-0.056,-0.127,-0.071,0.092,0.007,-0.099,0.019,-0.194,-0.212,-0.194,-0.162,-0.119
'0:00.963',-0.053,-0.122,-0.069,0.087,0.007,-0.096,0.019,-0.194,-0.212,-0.194,-0.162,-0.119
'0:00.964',-0.052,-0.118,-0.066,0.085,0.007,-0.092,0.019,-0.194,-0.212,-0.197,-0.159,-0.122
'0:00.965',-0.050,-0.112,-0.062,0.081,0.006,-0.088,0.019,-0.194,-0.212,-0.200,-0.156,-0.125
'0:00.966',-0.048,-0.112,-0.064,0.080,0.008,-0.088,0.013,-0.197,-0.212,-0.191,-0.156,-0.119
'0:00.967',-0.044,-0.112,-0.069,0.078,0.012,-0.091,0.013,-0.200,-0.219,-0.187,-0.156,-0.119
'0:00.968',-0.044,-0.109,-0.066,0.077,0.011,-0.088,0.009,-0.197,-0.216,-0.197,-0.156,-0.119
'0:00.969',-0.044,-0.109,-0.066,0.077,0.011,-0.088,0.013,-0.200,-0.219,-0.194,-0.162,-0.119
'0:00.970',-0.044,-0.109,-0.066,0.077,0.011,-0.088,0.009,-0.203,-0.219,-0.200,-0.159,-0.119
'0:00.971',-0.047,-0.109,-0.062,0.078,0.007,-0.086,0.006,-0.206,-0.219,-0.200,-0.156,-0.119
'0:00.972',-0.047,-0.114,-0.067,0.081,0.010,-0.091,0.013,-0.203,-0.219,-0.197,-0.156,-0.119
'0:00.973',-0.047,-0.119,-0.072,0.083,0.012,-0.096,0.013,-0.200,-0.219,-0.194,-0.156,-0.119
'0:00.974',-0.048,-0.122,-0.074,0.085,0.012,-0.098,0.016,-0.197,-0.219,-0.197,-0.159,-0.119
'0:00.975',-0.050,-0.125,-0.075,0.087,0.012,-0.100,0.013,-0.194,-0.219,-0.200,-0.162,-0.125
'0:00.976',-0.053,-0.128,-0.075,0.091,0.011,-0.102,0.022,-0.200,-0.222,-0.197,-0.166,-0.128
'0:00.977',-0.053,-0.131,-0.078,0.092,0.012,-0.105,0.019,-0.200,-0.225,-0.194,-0.169,-0.125
'0:00.978',-0.056,-0.133,-0.077,0.095,0.010,-0.105,0.016,-0.194,-0.225,-0.197,-0.169,-0.122
'0:00.979',-0.059,-0.131,-0.072,0.096,0.006,-0.102,0.013,-0.194,-0.225,-0.200,-0.169,-0.119
'0:00.980',-0.064,-0.133,-0.069,0.098,0.002,-0.101,0.016,-0.194,-0.231,-0.200,-0.169,-0.125
'0:00.981',-0.066,-0.134,-0.069,0.100,0.001,-0.102,0.019,-0.200,-0.225,-0.200,-0.169,-0.119
'0:00.982',-0.062,-0.130,-0.067,0.096,0.002,-0.099,0.016,-0.203,-0.222,-0.200,-0.169,-0.125
'0:00.983',-0.062,-0.131,-0.069,0.097,0.003,-0.100,0.013,-0.206,-0.219,-0.200,-0.169,-0.125
'0:00.984',-0.059,-0.130,-0.071,0.095,0.006,-0.101,0.013,-0.206,-0.228,-0.200,-0.169,-0.125
'0:00.985',-0.056,-0.128,-0.072,0.092,0.007,-0.100,0.013,-0.206,-0.225,-0.200,-0.169,-0.125
'0:00.986',-0.056,-0.124,-0.067,0.090,0.006,-0.096,0.016,-0.206,-0.228,-0.200,-0.166,-0.125
'0:00.987',-0.056,-0.125,-0.069,0.091,0.006,-0.097,0.019,-0.206,-0.225,-0.200,-0.169,-0.125
'0:00.988',-0.056,-0.128,-0.072,0.092,0.007,-0.100,0.019,-0.206,-0.225,-0.197,-0.169,-0.125
'0:00.989',-0.053,-0.128,-0.075,0.091,0.011,-0.102,0.019,-0.206,-0.225,-0.200,-0.162,-0.125
'0:00.990',-0.052,-0.127,-0.075,0.089,0.011,-0.101,0.025,-0.206,-0.222,-0.200,-0.169,-0.122
'0:00.991',-0.047,-0.125,-0.078,0.086,0.016,-0.102,0.025,-0.206,-0.219,-0.200,-0.169,-0.119
'0:00.992',-0.048,-0.126,-0.078,0.087,0.015,-0.102,0.022,-0.206,-0.219,-0.203,-0.172,-0.119
'0:00.993',-0.050,-0.128,-0.078,0.089,0.014,-0.103,0.025,-0.206,-0.219,-0.206,-0.175,-0.119
'0:00.994',-0.050,-0.128,-0.078,0.089,0.014,-0.103,0.025,-0.206,-0.222,-0.206,-0.169,-0.119
'0:00.995',-0.050,-0.128,-0.078,0.089,0.014,-0.103,0.025,-0.206,-0.231,-0.206,-0.175,-0.119
'0:00.996',-0.050,-0.128,-0.078,0.089,0.014,-0.103,0.025,-0.209,-0.225,-0.203,-0.172,-0.125
'0:00.997',-0.050,-0.131,-0.081,0.091,0.016,-0.106,0.025,-0.206,-0.225,-0.200,-0.169,-0.119
'0:00.998',-0.053,-0.130,-0.077,0.092,0.012,-0.104,0.022,-0.200,-0.228,-0.203,-0.162,-0.116
'0:00.999',-0.053,-0.128,-0.075,0.091,0.011,-0.102,0.019,-0.200,-0.231,-0.206,-0.169,-0.113
'0:01.000',-0.053,-0.133,-0.079,0.093,0.013,-0.106,0.019,-0.203,-0.231,-0.197,-0.169,-0.119
'0:01.001',-0.053,-0.134,-0.081,0.094,0.014,-0.108,0.019,-0.200,-0.231,-0.200,-0.169,-0.125
'0:01.002',-0.050,-0.131,-0.081,0.091,0.016,-0.106,0.019,-0.200,-0.231,-0.200,-0.169,-0.122
'0:01.003',-0.053,-0.131,-0.078,0.092,0.012,-0.105,0.019,-0.200,-0.231,-0.200,-0.169,-0.125
'0:01.004',-0.053,-0.136,-0.082,0.094,0.014,-0.109,0.019,-0.203,-0.231,-0.203,-0.172,-0.125
'0:01.005',-0.056,-0.141,-0.084,0.099,0.014,-0.113,0.019,-0.206,-0.231,-0.206,-0.175,-0.131
'0:01.006',-0.054,-0.139,-0.085,0.097,0.015,-0.113,0.025,-0.209,-0.231,-0.206,-0.172,-0.128
'0:01.007',-0.056,-0.137,-0.081,0.097,0.012,-0.109,0.019,-0.206,-0.231,-0.206,-0.169,-0.125
'0:01.008',-0.054,-0.136,-0.081,0.095,0.013,-0.109,0.019,-0.206,-0.225,-0.206,-0.169,-0.122
'0:01.009',-0.056,-0.134,-0.078,0.096,0.011,-0.106,0.019,-0.200,-0.219,-0.206,-0.169,-0.119
'0:01.010',-0.055,-0.133,-0.078,0.094,0.011,-0.106,0.016,-0.203,-0.228,-0.203,-0.169,-0.119
'0:01.011',-0.053,-0.131,-0.078,0.092,0.012,-0.105,0.019,-0.206,-0.225,-0.200,-0.169,-0.119
'0:01.012',-0.049,-0.131,-0.082,0.090,0.017,-0.107,0.019,-0.203,-0.225,-0.200,-0.169,-0.119
'0:01.013',-0.050,-0.125,-0.075,0.087,0.012,-0.100,0.019,-0.206,-0.225,-0.200,-0.169,-0.119
'0:01.014',-0.046,-0.124,-0.078,0.085,0.016,-0.101,0.019,-0.206,-0.225,-0.200,-0.169,-0.119
'0:01.015',-0.044,-0.122,-0.078,0.083,0.017,-0.100,0.019,-0.206,-0.225,-0.200,-0.169,-0.119
'0:01.016',-0.045,-0.124,-0.079,0.084,0.017,-0.101,0.019,-0.206,-0.225,-0.200,-0.169,-0.119
'0:01.017',-0.044,-0.122,-0.078,0.083,0.017,-0.100,0.019,-0.206,-0.225,-0.200,-0.169,-0.119
'0:01.018',-0.047,-0.125,-0.078,0.086,0.016,-0.102,0.019,-0.203,-0.225,-0.212,-0.169,-0.119
'0:01.019',-0.050,-0.128,-0.078,0.089,0.014,-0.103,0.019,-0.200,-0.225,-0.212,-0.169,-0.125
'0:01.020',-0.046,-0.128,-0.082,0.087,0.018,-0.106,0.019,-0.200,-0.225,-0.209,-0.162,-0.128
'0:01.021',-0.044,-0.131,-0.087,0.087,0.022,-0.109,0.019,-0.200,-0.225,-0.212,-0.162,-0.131
'0:01.022',-0.045,-0.134,-0.089,0.090,0.022,-0.112,0.022,-0.197,-0.222,-0.209,-0.166,-0.125
'0:01.023',-0.047,-0.141,-0.094,0.094,0.023,-0.118,0.025,-0.200,-0.225,-0.206,-0.169,-0.119
'0:01.024',-0.051,-0.145,-0.094,0.098,0.021,-0.119,0.019,-0.200,-0.228,-0.203,-0.162,-0.119
'0:01.025',-0.050,-0.147,-0.097,0.099,0.023,-0.122,0.019,-0.200,-0.231,-0.206,-0.162,-0.119
'0:01.026',-0.049,-0.150,-0.101,0.099,0.026,-0.126,0.019,-0.206,-0.228,-0.212,-0.169,-0.125
'0:01.027',-0.044,-0.150,-0.106,0.097,0.031,-0.128,0.019,-0.200,-0.231,-0.206,-0.175,-0.125
'0:01.028',-0.041,-0.149,-0.108,0.095,0.034,-0.129,0.016,-0.200,-0.234,-0.209,-0.175,-0.128
'0:01.029',-0.038,-0.144,-0.106,0.091,0.034,-0.125,0.013,-0.200,-0.231,-0.212,-0.169,-0.125
'0:01.030',-0.041,-0.144,-0.103,0.092,0.031,-0.124,0.013,-0.197,-0.234,-0.209,-0.169,-0.128
'0:01.031',-0.041,-0.141,-0.100,0.091,0.029,-0.121,0.013,-0.200,-0.231,-0.212,-0.169,-0.131
'0:01.032',-0.042,-0.145,-0.103,0.094,0.031,-0.124,0.022,-0.194,-0.222,-0.206,-0.169,-0.122
'0:01.033',-0.041,-0.144,-0.103,0.092,0.031,-0.124,0.025,-0.194,-0.219,-0.206,-0.162,-0.119
'0:01.034',-0.041,-0.134,-0.094,0.087,0.026,-0.114,0.031,-0.187,-0.212,-0.200,-0.159,-0.119
'0:01.035',-0.041,-0.122,-0.081,0.081,0.020,-0.102,0.038,-0.181,-0.206,-0.194,-0.156,-0.113
'0:01.036',-0.036,-0.106,-0.070,0.071,0.017,-0.088,0.041,-0.178,-0.203,-0.191,-0.150,-0.109
'0:01.037',-0.031,-0.091,-0.059,0.061,0.014,-0.075,0.044,-0.175,-0.200,-0.187,-0.144,-0.106
'0:01.038',-0.027,-0.081,-0.054,0.054,0.014,-0.068,0.041,-0.172,-0.194,-0.178,-0.137,-0.100
'0:01.039',-0.022,-0.072,-0.050,0.047,0.014,-0.061,0.044,-0.169,-0.194,-0.175,-0.137,-0.100
'0:01.040',-0.019,-0.063,-0.044,0.041,0.012,-0.053,0.044,-0.166,-0.187,-0.169,-0.131,-0.091
'0:01.041',-0.019,-0.056,-0.037,0.037,0.009,-0.047,0.044,-0.156,-0.187,-0.169,-0.131,-0.087
'0:01.042',-0.017,-0.052,-0.034,0.035,0.008,-0.043,0.044,-0.156,-0.178,-0.159,-0.128,-0.087
'0:01.043',-0.013,-0.044,-0.031,0.028,0.009,-0.037,0.038,-0.156,-0.175,-0.156,-0.131,-0.087
'0:01.044',-0.016,-0.045,-0.029,0.031,0.007,-0.037,0.047,-0.156,-0.175,-0.156,-0.128,-0.081
'0:01.045',-0.013,-0.047,-0.034,0.030,0.011,-0.041,0.044,-0.156,-0.175,-0.156,-0.125,-0.081
'0:01.046',-0.016,-0.047,-0.031,0.031,0.007,-0.039,0.047,-0.156,-0.175,-0.156,-0.131,-0.084
'0:01.047',-0.019,-0.047,-0.028,0.033,0.004,-0.037,0.044,-0.156,-0.175,-0.156,-0.131,-0.081
'0:01.048',-0.017,-0.050,-0.033,0.034,0.008,-0.042,0.047,-0.150,-0.175,-0.159,-0.131,-0.081
'0:01.049',-0.019,-0.059,-0.041,0.039,0.011,-0.050,0.050,-0.150,-0.175,-0.162,-0.131,-0.081
'0:01.050',-0.017,-0.066,-0.049,0.041,0.016,-0.058,0.041,-0.150,-0.178,-0.159,-0.128,-0.081
'0:01.051',-0.016,-0.072,-0.056,0.044,0.020,-0.064,0.038,-0.150,-0.175,-0.162,-0.131,-0.081
'0:01.052',-0.013,-0.075,-0.062,0.044,0.025,-0.069,0.031,-0.156,-0.175,-0.166,-0.131,-0.081
'0:01.053',-0.013,-0.075,-0.062,0.044,0.025,-0.069,0.031,-0.150,-0.175,-0.169,-0.125,-0.081
'0:01.054',-0.008,-0.072,-0.064,0.040,0.027,-0.068,0.028,-0.153,-0.178,-0.162,-0.125,-0.078
'0:01.055',0.000,-0.063,-0.062,0.031,0.031,-0.063,0.025,-0.150,-0.175,-0.156,-0.119,-0.081
'0:01.056',0.006,-0.053,-0.059,0.024,0.032,-0.056,0.013,-0.147,-0.169,-0.150,-0.119,-0.078
'0:01.057',0.009,-0.044,-0.053,0.017,0.031,-0.049,0.013,-0.144,-0.162,-0.150,-0.119,-0.075
'0:01.058',0.009,-0.037,-0.047,0.014,0.028,-0.043,0.016,-0.134,-0.169,-0.144,-0.112,-0.075
'0:01.059',0.009,-0.031,-0.041,0.011,0.025,-0.036,0.013,-0.131,-0.169,-0.144,-0.112,-0.069
'0:01.060',0.007,-0.019,-0.026,0.006,0.017,-0.023,0.022,-0.128,-0.156,-0.137,-0.103,-0.066
'0:01.061',0.006,-0.009,-0.016,0.002,0.011,-0.013,0.025,-0.125,-0.150,-0.137,-0.100,-0.056
'0:01.062',0.005,-0.011,-0.016,0.003,0.010,-0.013,0.022,-0.125,-0.150,-0.128,-0.100,-0.056
'0:01.063',0.003,-0.009,-0.013,0.003,0.007,-0.011,0.019,-0.125,-0.150,-0.125,-0.100,-0.056
'0:01.064',0.003,-0.009,-0.013,0.003,0.007,-0.011,0.022,-0.131,-0.150,-0.131,-0.097,-0.056
'0:01.065',0.003,-0.009,-0.013,0.003,0.007,-0.011,0.025,-0.131,-0.150,-0.131,-0.094,-0.050
'0:01.066',-0.001,-0.008,-0.007,0.005,0.002,-0.007,0.025,-0.131,-0.156,-0.131,-0.094,-0.050
'0:01.067',-0.009,-0.006,0.003,0.008,-0.006,-0.002,0.025,-0.138,-0.156,-0.131,-0.094,-0.050
'0:01.068',-0.014,-0.011,0.003,0.012,-0.008,-0.004,0.025,-0.134,-0.150,-0.128,-0.091,-0.053
'0:01.069',-0.016,-0.009,0.006,0.012,-0.011,-0.002,0.025,-0.138,-0.150,-0.125,-0.094,-0.050
'0:01.070',-0.017,-0.011,0.006,0.014,-0.012,-0.002,0.028,-0.141,-0.150,-0.134,-0.094,-0.050
'0:01.071',-0.016,-0.013,0.003,0.014,-0.009,-0.005,0.031,-0.144,-0.150,-0.137,-0.094,-0.050
'0:01.072',-0.017,-0.019,-0.002,0.018,-0.008,-0.011,0.031,-0.144,-0.153,-0.137,-0.097,-0.056
'0:01.073',-0.019,-0.025,-0.006,0.022,-0.006,-0.016,0.031,-0.144,-0.156,-0.137,-0.100,-0.056
'0:01.074',-0.016,-0.025,-0.009,0.021,-0.003,-0.018,0.031,-0.144,-0.156,-0.134,-0.097,-0.056
'0:01.075',-0.016,-0.031,-0.016,0.024,0.000,-0.024,0.031,-0.144,-0.162,-0.137,-0.100,-0.062
'0:01.076',-0.017,-0.041,-0.023,0.029,0.002,-0.032,0.031,-0.144,-0.162,-0.137,-0.109,-0.072
'0:01.077',-0.013,-0.047,-0.034,0.030,0.011,-0.041,0.031,-0.144,-0.162,-0.137,-0.112,-0.075
'0:01.078',-0.013,-0.053,-0.041,0.033,0.014,-0.047,0.028,-0.150,-0.162,-0.144,-0.112,-0.072
'0:01.079',-0.013,-0.056,-0.044,0.034,0.016,-0.050,0.031,-0.150,-0.169,-0.144,-0.112,-0.069
'0:01.080',-0.017,-0.061,-0.044,0.039,0.013,-0.053,0.028,-0.144,-0.166,-0.141,-0.106,-0.072
'0:01.081',-0.019,-0.069,-0.050,0.044,0.016,-0.059,0.031,-0.144,-0.169,-0.144,-0.106,-0.075
'0:01.082',-0.022,-0.071,-0.049,0.046,0.013,-0.060,0.031,-0.153,-0.175,-0.144,-0.109,-0.075
'0:01.083',-0.019,-0.072,-0.053,0.046,0.017,-0.063,0.031,-0.156,-0.175,-0.150,-0.112,-0.075
'0:01.084',-0.017,-0.074,-0.056,0.046,0.019,-0.065,0.022,-0.159,-0.181,-0.150,-0.119,-0.075
'0:01.085',-0.016,-0.072,-0.056,0.044,0.020,-0.064,0.019,-0.163,-0.181,-0.156,-0.119,-0.075
'0:01.086',-0.013,-0.078,-0.066,0.046,0.026,-0.072,0.016,-0.166,-0.184,-0.159,-0.119,-0.078
'0:01.087',-0.009,-0.081,-0.072,0.046,0.031,-0.077,0.013,-0.169,-0.187,-0.162,-0.119,-0.069
'0:01.088',-0.011,-0.081,-0.070,0.046,0.029,-0.076,0.013,-0.169,-0.184,-0.162,-0.122,-0.072
'0:01.089',-0.013,-0.084,-0.072,0.049,0.029,-0.078,0.013,-0.169,-0.187,-0.162,-0.125,-0.075
'0:01.090',-0.008,-0.088,-0.079,0.048,0.036,-0.084,0.009,-0.178,-0.194,-0.169,-0.119,-0.072
'0:01.091',-0.006,-0.088,-0.081,0.047,0.037,-0.084,0.006,-0.181,-0.200,-0.181,-0.125,-0.075
'0:01.092',-0.007,-0.084,-0.077,0.046,0.034,-0.081,0.003,-0.181,-0.197,-0.178,-0.128,-0.075
'0:01.093',-0.016,-0.084,-0.069,0.050,0.026,-0.077,0.006,-0.181,-0.200,-0.175,-0.125,-0.075
'0:01.094',-0.023,-0.092,-0.069,0.058,0.023,-0.081,0.006,-0.184,-0.197,-0.175,-0.125,-0.081
'0:01.095',-0.028,-0.097,-0.069,0.063,0.020,-0.083,0.006,-0.181,-0.194,-0.175,-0.125,-0.081
'0:01.096',-0.031,-0.101,-0.070,0.066,0.019,-0.086,0.003,-0.181,-0.203,-0.181,-0.131,-0.087
'0:01.097',-0.038,-0.112,-0.075,0.075,0.019,-0.094,0.000,-0.181,-0.206,-0.181,-0.131,-0.087
'0:01.098',-0.041,-0.116,-0.075,0.078,0.017,-0.096,0.009,-0.187,-0.206,-0.178,-0.137,-0.091
'0:01.099',-0.044,-0.122,-0.078,0.083,0.017,-0.100,0.006,-0.187,-0.212,-0.181,-0.137,-0.087
'0:01.100',-0.048,-0.124,-0.076,0.086,0.014,-0.100,0.013,-0.187,-0.212,-0.175,-0.141,-0.091
'0:01.101',-0.053,-0.128,-0.075,0.091,0.011,-0.102,0.019,-0.194,-0.212,-0.175,-0.144,-0.100
'0:01.102',-0.059,-0.136,-0.077,0.098,0.009,-0.107,0.016,-0.200,-0.219,-0.184,-0.153,-0.106
'0:01.103',-0.062,-0.141,-0.078,0.102,0.007,-0.109,0.013,-0.206,-0.225,-0.194,-0.162,-0.113
'0:01.104',-0.062,-0.144,-0.081,0.103,0.009,-0.113,0.013,-0.206,-0.228,-0.200,-0.162,-0.116
'0:01.105',-0.062,-0.150,-0.087,0.106,0.012,-0.119,0.013,-0.206,-0.225,-0.200,-0.162,-0.119
'0:01.106',-0.062,-0.155,-0.093,0.109,0.015,-0.124,0.009,-0.212,-0.234,-0.203,-0.172,-0.119
'0:01.107',-0.066,-0.156,-0.091,0.111,0.012,-0.124,0.006,-0.212,-0.237,-0.212,-0.175,-0.119
'0:01.108',-0.069,-0.158,-0.089,0.114,0.010,-0.124,0.009,-0.222,-0.244,-0.216,-0.181,-0.125
'0:01.109',-0.066,-0.156,-0.091,0.111,0.012,-0.124,0.013,-0.225,-0.244,-0.219,-0.181,-0.125
'0:01.110',-0.066,-0.157,-0.092,0.112,0.013,-0.125,0.013,-0.225,-0.244,-0.222,-0.181,-0.125
'0:01.111',-0.066,-0.159,-0.094,0.112,0.014,-0.127,0.013,-0.225,-0.244,-0.225,-0.181,-0.125
'0:01.112',-0.069,-0.163,-0.094,0.116,0.012,-0.128,0.006,-0.231,-0.244,-0.225,-0.181,-0.128
'0:01.113',-0.069,-0.163,-0.094,0.116,0.012,-0.128,0.013,-0.225,-0.244,-0.231,-0.181,-0.131
'0:01.114',-0.067,-0.161,-0.094,0.114,0.013,-0.128,0.009,-0.231,-0.247,-0.228,-0.178,-0.131
'0:01.115',-0.069,-0.166,-0.097,0.117,0.014,-0.131,0.019,-0.231,-0.250,-0.225,-0.175,-0.131
'0:01.116',-0.068,-0.164,-0.096,0.116,0.014,-0.130,0.022,-0.225,-0.247,-0.225,-0.181,-0.134
'0:01.117',-0.066,-0.166,-0.100,0.116,0.017,-0.133,0.025,-0.225,-0.244,-0.225,-0.181,-0.138
'0:01.118',-0.069,-0.164,-0.096,0.117,0.013,-0.130,0.016,-0.231,-0.247,-0.225,-0.184,-0.141
'0:01.119',-0.069,-0.166,-0.097,0.117,0.014,-0.131,0.019,-0.231,-0.250,-0.225,-0.187,-0.144
'0:01.120',-0.070,-0.169,-0.099,0.119,0.014,-0.134,0.022,-0.231,-0.247,-0.228,-0.187,-0.144
'0:01.121',-0.072,-0.172,-0.100,0.122,0.014,-0.136,0.025,-0.231,-0.250,-0.231,-0.187,-0.144
'0:01.122',-0.071,-0.172,-0.101,0.121,0.015,-0.137,0.025,-0.234,-0.250,-0.228,-0.191,-0.147
'0:01.123',-0.069,-0.175,-0.106,0.122,0.019,-0.141,0.025,-0.238,-0.250,-0.231,-0.194,-0.150
'0:01.124',-0.069,-0.175,-0.106,0.122,0.019,-0.141,0.025,-0.234,-0.250,-0.231,-0.194,-0.147
'0:01.125',-0.069,-0.175,-0.106,0.122,0.019,-0.141,0.025,-0.238,-0.250,-0.225,-0.194,-0.144
'0:01.126',-0.070,-0.175,-0.105,0.122,0.017,-0.140,0.025,-0.238,-0.250,-0.228,-0.191,-0.141
'0:01.127',-0.072,-0.175,-0.103,0.124,0.016,-0.139,0.019,-0.238,-0.250,-0.219,-0.194,-0.138
'0:01.128',-0.069,-0.174,-0.105,0.121,0.018,-0.139,0.019,-0.241,-0.253,-0.225,-0.194,-0.138
'0:01.129',-0.072,-0.175,-0.103,0.124,0.016,-0.139,0.013,-0.244,-0.256,-0.225,-0.200,-0.138
'0:01.130',-0.069,-0.173,-0.104,0.121,0.017,-0.139,0.016,-0.247,-0.256,-0.222,-0.200,-0.138
'0:01.131',-0.072,-0.175,-0.103,0.124,0.016,-0.139,0.013,-0.244,-0.256,-0.231,-0.200,-0.138
'0:01.132',-0.073,-0.172,-0.099,0.122,0.012,-0.136,0.013,-0.241,-0.256,-0.228,-0.197,-0.138
'0:01.133',-0.075,-0.169,-0.094,0.122,0.009,-0.131,0.019,-0.238,-0.256,-0.219,-0.194,-0.138
'0:01.134',-0.075,-0.169,-0.094,0.122,0.009,-0.131,0.016,-0.234,-0.256,-0.225,-0.194,-0.138
'0:01.135',-0.075,-0.169,-0.094,0.122,0.009,-0.131,0.019,-0.238,-0.256,-0.225,-0.200,-0.138
'0:01.136',-0.074,-0.170,-0.096,0.122,0.011,-0.133,0.016,-0.228,-0.256,-0.225,-0.197,-0.134
'0:01.137',-0.072,-0.172,-0.100,0.122,0.014,-0.136,0.019,-0.231,-0.256,-0.225,-0.200,-0.138
'0:01.138',-0.074,-0.174,-0.100,0.124,0.013,-0.137,0.022,-0.234,-0.259,-0.228,-0.200,-0.141
'0:01.139',-0.072,-0.172,-0.100,0.122,0.014,-0.136,0.019,-0.238,-0.262,-0.231,-0.200,-0.138
'0:01.140',-0.069,-0.175,-0.106,0.122,0.019,-0.141,0.022,-0.238,-0.269,-0.231,-0.203,-0.144
'0:01.141',-0.066,-0.172,-0.106,0.119,0.020,-0.139,0.013,-0.238,-0.269,-0.231,-0.206,-0.144
'0:01.142',-0.062,-0.171,-0.108,0.117,0.023,-0.139,0.013,-0.238,-0.269,-0.228,-0.200,-0.141
'0:01.143',-0.062,-0.169,-0.106,0.116,0.022,-0.138,0.013,-0.238,-0.262,-0.225,-0.200,-0.138
'0:01.144',-0.064,-0.169,-0.105,0.116,0.021,-0.137,0.006,-0.234,-0.269,-0.228,-0.203,-0.138
'0:01.145',-0.069,-0.172,-0.103,0.121,0.017,-0.138,0.006,-0.231,-0.262,-0.231,-0.200,-0.138
'0:01.146',-0.073,-0.173,-0.100,0.123,0.013,-0.137,0.009,-0.234,-0.262,-0.228,-0.200,-0.138
'0:01.147',-0.078,-0.175,-0.097,0.127,0.009,-0.136,0.013,-0.238,-0.262,-0.225,-0.200,-0.138
'0:01.148',-0.079,-0.176,-0.097,0.128,0.009,-0.137,0.016,-0.234,-0.262,-0.225,-0.197,-0.138
'0:01.149',-0.081,-0.178,-0.097,0.130,0.007,-0.138,0.019,-0.238,-0.262,-0.225,-0.194,-0.138
'0:01.150',-0.077,-0.179,-0.103,0.128,0.012,-0.141,0.019,-0.234,-0.256,-0.228,-0.197,-0.138
'0:01.151',-0.078,-0.181,-0.103,0.130,0.012,-0.143,0.019,-0.231,-0.250,-0.225,-0.187,-0.138
'0:01.152',-0.078,-0.178,-0.100,0.128,0.011,-0.139,0.016,-0.234,-0.250,-0.225,-0.187,-0.138
'0:01.153',-0.078,-0.175,-0.097,0.127,0.009,-0.136,0.013,-0.238,-0.250,-0.225,-0.187,-0.138
'0:01.154',-0.075,-0.176,-0.101,0.126,0.013,-0.139,0.016,-0.234,-0.253,-0.225,-0.191,-0.138
'0:01.155',-0.075,-0.178,-0.103,0.127,0.014,-0.141,0.019,-0.225,-0.250,-0.225,-0.194,-0.138
'0:01.156',-0.072,-0.174,-0.102,0.123,0.015,-0.138,0.019,-0.228,-0.250,-0.219,-0.187,-0.131
'0:01.157',-0.072,-0.172,-0.100,0.122,0.014,-0.136,0.019,-0.231,-0.250,-0.225,-0.194,-0.138
'0:01.158',-0.074,-0.175,-0.101,0.124,0.014,-0.138,0.016,-0.231,-0.250,-0.222,-0.187,-0.138
'0:01.159',-0.072,-0.175,-0.103,0.124,0.016,-0.139,0.013,-0.231,-0.250,-0.225,-0.187,-0.144
'0:01.160',-0.073,-0.174,-0.101,0.124,0.014,-0.138,0.016,-0.225,-0.250,-0.225,-0.184,-0.144
'0:01.161',-0.075,-0.178,-0.103,0.127,0.014,-0.141,0.019,-0.225,-0.250,-0.231,-0.187,-0.150
'0:01.162',-0.076,-0.184,-0.108,0.131,0.016,-0.146,0.034,-0.219,-0.247,-0.228,-0.197,-0.153
'0:01.163',-0.081,-0.197,-0.116,0.139,0.017,-0.156,0.044,-0.206,-0.250,-0.237,-0.206,-0.162
'0:01.164',-0.089,-0.211,-0.123,0.150,0.017,-0.167,0.053,-0.200,-0.250,-0.244,-0.216,-0.175
'0:01.165',-0.094,-0.219,-0.125,0.156,0.016,-0.172,0.069,-0.187,-0.250,-0.250,-0.219,-0.181
'0:01.166',-0.092,-0.229,-0.137,0.161,0.022,-0.183,0.088,-0.175,-0.250,-0.259,-0.234,-0.194
'0:01.167',-0.091,-0.238,-0.147,0.164,0.028,-0.192,0.100,-0.169,-0.250,-0.269,-0.250,-0.206
'0:01.168',-0.091,-0.244,-0.153,0.167,0.031,-0.199,0.113,-0.159,-0.253,-0.278,-0.266,-0.222
'0:01.169',-0.094,-0.244,-0.150,0.169,0.028,-0.197,0.131,-0.144,-0.250,-0.275,-0.269,-0.231
'0:01.170',-0.092,-0.241,-0.149,0.166,0.028,-0.195,0.144,-0.128,-0.250,-0.281,-0.275,-0.237
'0:01.171',-0.088,-0.241,-0.153,0.164,0.032,-0.197,0.156,-0.106,-0.244,-0.275,-0.275,-0.237
'0:01.172',-0.077,-0.244,-0.167,0.161,0.045,-0.206,0.156,-0.094,-0.244,-0.281,-0.281,-0.241
'0:01.173',-0.062,-0.234,-0.172,0.149,0.054,-0.203,0.156,-0.075,-0.231,-0.275,-0.281,-0.244
'0:01.174',-0.049,-0.222,-0.173,0.136,0.062,-0.197,0.159,-0.053,-0.212,-0.272,-0.278,-0.241
'0:01.175',-0.034,-0.200,-0.166,0.117,0.066,-0.183,0.163,-0.025,-0.187,-0.250,-0.262,-0.231
'0:01.176',-0.031,-0.172,-0.141,0.102,0.054,-0.156,0.156,-0.003,-0.153,-0.222,-0.234,-0.209
'0:01.177',-0.031,-0.134,-0.103,0.083,0.036,-0.119,0.156,0.012,-0.119,-0.181,-0.200,-0.181
'0:01.178',-0.034,-0.092,-0.057,0.063,0.011,-0.075,0.163,0.025,-0.094,-0.150,-0.166,-0.150
'0:01.179',-0.028,-0.041,-0.013,0.034,-0.008,-0.027,0.163,0.044,-0.056,-0.100,-0.119,-0.113
'0:01.180',-0.016,0.016,0.031,0.000,-0.024,0.023,0.156,0.066,-0.022,-0.050,-0.069,-0.072
'0:01.181',-0.003,0.081,0.084,-0.039,-0.044,0.082,0.144,0.088,0.031,0.013,-0.013,-0.019
'0:01.182',0.006,0.141,0.134,-0.073,-0.064,0.137,0.134,0.116,0.078,0.072,0.044,0.028
'0:01.183',0.025,0.194,0.169,-0.109,-0.072,0.181,0.113,0.150,0.138,0.137,0.113,0.081
'0:01.184',0.046,0.249,0.203,-0.147,-0.079,0.226,0.088,0.178,0.194,0.206,0.172,0.138
'0:01.185',0.062,0.316,0.253,-0.189,-0.096,0.284,0.063,0.212,0.256,0.281,0.244,0.200
'0:01.186',0.086,0.387,0.302,-0.236,-0.108,0.344,0.044,0.250,0.322,0.363,0.316,0.269
'0:01.187',0.109,0.456,0.347,-0.283,-0.119,0.401,0.019,0.300,0.394,0.450,0.400,0.338
'0:01.188',0.133,0.520,0.388,-0.326,-0.128,0.454,0.003,0.353,0.475,0.534,0.484,0.406
'0:01.189',0.159,0.597,0.437,-0.378,-0.139,0.517,-0.019,0.406,0.562,0.631,0.575,0.481
'0:01.190',0.184,0.674,0.489,-0.429,-0.153,0.581,-0.050,0.472,0.662,0.731,0.675,0.566
'0:01.191',0.209,0.769,0.559,-0.489,-0.175,0.664,-0.081,0.544,0.769,0.850,0.794,0.662
'0:01.192',0.247,0.868,0.621,-0.557,-0.187,0.744,-0.125,0.609,0.881,0.969,0.909,0.766
'0:01.193',0.278,0.956,0.678,-0.617,-0.200,0.817,-0.156,0.675,0.988,1.088,1.019,0.856
'0:01.194',0.305,1.047,0.742,-0.676,-0.219,0.894,-0.178,0.741,1.106,1.209,1.138,0.953
'0:01.195',0.319,1.137,0.819,-0.728,-0.250,0.978,-0.206,0.788,1.213,1.325,1.244,1.038
'0:01.196',0.328,1.229,0.901,-0.779,-0.287,1.065,-0.231,0.822,1.303,1.441,1.344,1.125
'0:01.197',0.341,1.291,0.950,-0.816,-0.305,1.120,-0.262,0.850,1.388,1.544,1.425,1.188
'0:01.198',0.349,1.342,0.993,-0.845,-0.323,1.167,-0.287,0.881,1.475,1.634,1.506,1.241
'0:01.199',0.347,1.375,1.028,-0.861,-0.341,1.201,-0.300,0.906,1.556,1.719,1.569,1.281
'0:01.200',0.342,1.403,1.061,-0.872,-0.360,1.232,-0.306,0.931,1.622,1.787,1.616,1.313
'0:01.201',0.334,1.425,1.091,-0.879,-0.378,1.257,-0.306,0.938,1.681,1.844,1.656,1.338
'0:01.202',0.326,1.457,1.131,-0.892,-0.403,1.294,-0.322,0.941,1.738,1.903,1.703,1.363
'0:01.203',0.309,1.478,1.169,-0.894,-0.430,1.323,-0.325,0.938,1.781,1.944,1.725,1.369
'0:01.204',0.275,1.475,1.200,-0.875,-0.463,1.337,-0.331,0.931,1.816,1.984,1.738,1.375
'0:01.205',0.247,1.400,1.153,-0.823,-0.453,1.276,-0.331,0.925,1.831,1.981,1.713,1.331
'0:01.206',0.227,1.303,1.076,-0.765,-0.425,1.189,-0.313,0.934,1.853,1.975,1.672,1.284
'0:01.207',0.216,1.209,0.994,-0.712,-0.389,1.101,-0.325,0.900,1.850,1.950,1.625,1.225
'0:01.208',0.209,1.109,0.900,-0.659,-0.346,1.004,-0.334,0.853,1.828,1.916,1.569,1.169
'0:01.209',0.200,1.012,0.813,-0.606,-0.306,0.912,-0.350,0.788,1.787,1.862,1.506,1.100
'0:01.210',0.189,0.919,0.729,-0.554,-0.270,0.824,-0.378,0.716,1.747,1.813,1.444,1.041
'0:01.211',0.181,0.853,0.672,-0.517,-0.246,0.763,-0.406,0.644,1.700,1.756,1.381,0.988
'0:01.212',0.182,0.795,0.612,-0.489,-0.215,0.704,-0.441,0.572,1.663,1.703,1.328,0.928
'0:01.213',0.175,0.741,0.566,-0.457,-0.196,0.653,-0.462,0.494,1.581,1.613,1.238,0.862
'0:01.214',0.167,0.689,0.522,-0.427,-0.178,0.605,-0.478,0.409,1.478,1.519,1.147,0.797
'0:01.215',0.144,0.616,0.472,-0.379,-0.164,0.544,-0.475,0.306,1.350,1.381,1.025,0.706
'0:01.216',0.114,0.530,0.416,-0.322,-0.151,0.472,-0.459,0.216,1.219,1.244,0.900,0.619
'0:01.217',0.094,0.422,0.328,-0.258,-0.118,0.375,-0.444,0.150,1.094,1.081,0.756,0.519
'0:01.218',0.080,0.306,0.226,-0.193,-0.073,0.266,-0.434,0.088,0.953,0.909,0.609,0.406
'0:01.219',0.053,0.200,0.147,-0.126,-0.047,0.173,-0.412,0.012,0.794,0.712,0.463,0.306
'0:01.220',0.033,0.100,0.067,-0.066,-0.018,0.084,-0.387,-0.053,0.631,0.525,0.322,0.213
'0:01.221',0.009,0.022,0.013,-0.016,-0.002,0.017,-0.363,-0.131,0.475,0.363,0.200,0.138
'0:01.222',-0.013,-0.050,-0.037,0.031,0.012,-0.044,-0.344,-0.219,0.300,0.200,0.075,0.066
'0:01.223',-0.038,-0.097,-0.059,0.068,0.011,-0.078,-0.325,-0.306,0.138,0.075,-0.013,0.006
'0:01.224',-0.061,-0.145,-0.084,0.103,0.012,-0.115,-0.309,-0.413,-0.031,-0.047,-0.087,-0.044
'0:01.225',-0.072,-0.178,-0.106,0.125,0.017,-0.143,-0.306,-0.500,-0.156,-0.125,-0.144,-0.087
'0:01.226',-0.077,-0.206,-0.129,0.142,0.026,-0.168,-0.300,-0.578,-0.272,-0.200,-0.200,-0.122
'0:01.227',-0.072,-0.228,-0.156,0.150,0.042,-0.192,-0.300,-0.600,-0.312,-0.225,-0.219,-0.138
'0:01.228',-0.064,-0.244,-0.179,0.154,0.057,-0.212,-0.306,-0.603,-0.334,-0.241,-0.222,-0.156
'0:01.229',-0.059,-0.250,-0.191,0.155,0.066,-0.221,-0.306,-0.588,-0.337,-0.250,-0.219,-0.156
'0:01.230',-0.055,-0.247,-0.192,0.151,0.068,-0.219,-0.297,-0.562,-0.334,-0.247,-0.225,-0.166
'0:01.231',-0.050,-0.238,-0.188,0.144,0.069,-0.213,-0.281,-0.531,-0.325,-0.237,-0.219,-0.162
'0:01.232',-0.050,-0.229,-0.179,0.140,0.064,-0.204,-0.275,-0.513,-0.312,-0.225,-0.209,-0.159
'0:01.233',-0.050,-0.222,-0.172,0.136,0.061,-0.197,-0.256,-0.487,-0.300,-0.212,-0.206,-0.156
'0:01.234',-0.056,-0.219,-0.162,0.138,0.053,-0.191,-0.237,-0.447,-0.281,-0.200,-0.197,-0.153
'0:01.235',-0.059,-0.219,-0.159,0.139,0.050,-0.189,-0.219,-0.419,-0.269,-0.194,-0.194,-0.144
'0:01.236',-0.059,-0.205,-0.146,0.133,0.043,-0.176,-0.187,-0.384,-0.253,-0.184,-0.184,-0.134
'0:01.237',-0.059,-0.197,-0.137,0.128,0.039,-0.167,-0.162,-0.350,-0.250,-0.187,-0.181,-0.131
'0:01.238',-0.053,-0.194,-0.141,0.124,0.044,-0.167,-0.144,-0.322,-0.237,-0.187,-0.184,-0.128
'0:01.239',-0.050,-0.188,-0.137,0.119,0.044,-0.162,-0.125,-0.300,-0.231,-0.187,-0.181,-0.131
'0:01.240',-0.050,-0.184,-0.134,0.117,0.042,-0.159,-0.106,-0.275,-0.222,-0.184,-0.181,-0.134
'0:01.241',-0.050,-0.181,-0.131,0.116,0.041,-0.156,-0.094,-0.256,-0.212,-0.187,-0.181,-0.131
'0:01.242',-0.050,-0.170,-0.120,0.110,0.035,-0.145,-0.078,-0.234,-0.206,-0.184,-0.172,-0.131
'0:01.243',-0.050,-0.172,-0.122,0.111,0.036,-0.147,-0.062,-0.219,-0.200,-0.187,-0.162,-0.125
'0:01.244',-0.050,-0.170,-0.120,0.110,0.035,-0.145,-0.056,-0.209,-0.191,-0.187,-0.159,-0.128
'0:01.245',-0.050,-0.166,-0.116,0.108,0.032,-0.141,-0.050,-0.200,-0.187,-0.181,-0.156,-0.119
'0:01.246',-0.050,-0.163,-0.113,0.106,0.031,-0.138,-0.044,-0.191,-0.187,-0.184,-0.159,-0.116
'0:01.247',-0.050,-0.153,-0.103,0.102,0.026,-0.128,-0.037,-0.187,-0.181,-0.187,-0.156,-0.113
'0:01.248',-0.049,-0.143,-0.094,0.096,0.023,-0.118,-0.031,-0.181,-0.184,-0.178,-0.150,-0.116
'0:01.249',-0.047,-0.134,-0.087,0.091,0.020,-0.111,-0.031,-0.175,-0.181,-0.175,-0.150,-0.113
'0:01.250',-0.046,-0.128,-0.082,0.087,0.018,-0.106,-0.022,-0.169,-0.175,-0.166,-0.144,-0.109
'0:01.251',-0.047,-0.128,-0.081,0.087,0.017,-0.105,-0.019,-0.169,-0.175,-0.162,-0.144,-0.106
'0:01.252',-0.047,-0.122,-0.075,0.084,0.014,-0.099,-0.012,-0.159,-0.172,-0.159,-0.144,-0.106
'0:01.253',-0.047,-0.122,-0.075,0.084,0.014,-0.099,-0.006,-0.156,-0.169,-0.156,-0.144,-0.106
'0:01.254',-0.049,-0.123,-0.074,0.086,0.012,-0.099,-0.006,-0.150,-0.169,-0.153,-0.141,-0.103
'0:01.255',-0.047,-0.119,-0.072,0.083,0.012,-0.096,0.000,-0.150,-0.169,-0.150,-0.144,-0.100
'0:01.256',-0.050,-0.114,-0.064,0.082,0.007,-0.089,0.003,-0.153,-0.172,-0.159,-0.147,-0.100
'0:01.257',-0.050,-0.112,-0.062,0.081,0.006,-0.088,0.013,-0.150,-0.169,-0.162,-0.150,-0.100
'0:01.258',-0.050,-0.119,-0.069,0.084,0.009,-0.094,0.013,-0.150,-0.169,-0.159,-0.147,-0.103
'0:01.259',-0.050,-0.122,-0.072,0.086,0.011,-0.097,0.013,-0.150,-0.169,-0.162,-0.150,-0.106
'0:01.260',-0.051,-0.122,-0.071,0.087,0.009,-0.096,0.016,-0.141,-0.169,-0.162,-0.150,-0.106
'0:01.261',-0.053,-0.125,-0.072,0.089,0.009,-0.099,0.025,-0.131,-0.169,-0.162,-0.144,-0.106
'0:01.262',-0.054,-0.128,-0.074,0.091,0.009,-0.101,0.022,-0.131,-0.175,-0.162,-0.141,-0.103
'0:01.263',-0.053,-0.128,-0.075,0.091,0.011,-0.102,0.025,-0.131,-0.169,-0.162,-0.144,-0.106
'0:01.264',-0.054,-0.131,-0.077,0.093,0.011,-0.104,0.025,-0.131,-0.172,-0.162,-0.144,-0.109
'0:01.265',-0.053,-0.131,-0.078,0.092,0.012,-0.105,0.019,-0.131,-0.169,-0.169,-0.144,-0.113
'0:01.266',-0.053,-0.136,-0.082,0.094,0.014,-0.109,0.019,-0.131,-0.172,-0.172,-0.147,-0.106
'0:01.267',-0.053,-0.141,-0.087,0.097,0.017,-0.114,0.019,-0.131,-0.169,-0.175,-0.150,-0.113
'0:01.268',-0.053,-0.139,-0.086,0.096,0.016,-0.113,0.019,-0.131,-0.169,-0.169,-0.147,-0.109
'0:01.269',-0.053,-0.137,-0.084,0.096,0.016,-0.111,0.013,-0.131,-0.169,-0.169,-0.150,-0.113
'0:01.270',-0.053,-0.139,-0.086,0.096,0.016,-0.113,0.013,-0.128,-0.169,-0.166,-0.147,-0.109
'0:01.271',-0.053,-0.137,-0.084,0.096,0.016,-0.111,0.019,-0.119,-0.169,-0.162,-0.144,-0.106
'0:01.272',-0.058,-0.133,-0.076,0.096,0.009,-0.104,0.019,-0.119,-0.169,-0.166,-0.144,-0.103
'0:01.273',-0.056,-0.128,-0.072,0.092,0.007,-0.100,0.019,-0.119,-0.169,-0.169,-0.144,-0.100
'0:01.274',-0.053,-0.128,-0.075,0.091,0.011,-0.102,0.022,-0.122,-0.169,-0.172,-0.144,-0.100
'0:01.275',-0.053,-0.128,-0.075,0.091,0.011,-0.102,0.019,-0.119,-0.169,-0.169,-0.144,-0.100
'0:01.276',-0.059,-0.129,-0.070,0.094,0.005,-0.100,0.022,-0.116,-0.169,-0.166,-0.147,-0.100
'0:01.277',-0.059,-0.131,-0.072,0.096,0.006,-0.102,0.025,-0.112,-0.169,-0.162,-0.150,-0.100
'0:01.278',-0.053,-0.124,-0.071,0.089,0.009,-0.097,0.031,-0.112,-0.166,-0.166,-0.141,-0.103
'0:01.279',-0.047,-0.116,-0.069,0.081,0.011,-0.093,0.025,-0.112,-0.169,-0.169,-0.137,-0.106
'0:01.280',-0.042,-0.116,-0.073,0.079,0.015,-0.094,0.025,-0.109,-0.169,-0.169,-0.141,-0.097
'0:01.281',-0.038,-0.112,-0.075,0.075,0.019,-0.094,0.025,-0.106,-0.169,-0.169,-0.144,-0.100
'0:01.282',-0.036,-0.114,-0.078,0.075,0.021,-0.096,0.025,-0.106,-0.169,-0.169,-0.141,-0.103
'0:01.283',-0.038,-0.116,-0.078,0.077,0.020,-0.097,0.025,-0.106,-0.169,-0.162,-0.137,-0.100
'0:01.284',-0.038,-0.116,-0.078,0.077,0.020,-0.097,0.028,-0.106,-0.162,-0.159,-0.141,-0.100
'0:01.285',-0.038,-0.112,-0.075,0.075,0.019,-0.094,0.031,-0.106,-0.162,-0.156,-0.144,-0.100
'0:01.286',-0.036,-0.114,-0.078,0.075,0.021,-0.096,0.028,-0.100,-0.156,-0.156,-0.134,-0.097
'0:01.287',-0.038,-0.112,-0.075,0.075,0.019,-0.094,0.031,-0.100,-0.162,-0.156,-0.131,-0.094
'0:01.288',-0.036,-0.111,-0.075,0.073,0.019,-0.093,0.031,-0.097,-0.159,-0.156,-0.131,-0.097
'0:01.289',-0.038,-0.112,-0.075,0.075,0.019,-0.094,0.031,-0.094,-0.150,-0.156,-0.131,-0.094
'0:01.290',-0.039,-0.109,-0.071,0.074,0.016,-0.090,0.034,-0.097,-0.150,-0.153,-0.134,-0.094
'0:01.291',-0.044,-0.109,-0.066,0.077,0.011,-0.088,0.031,-0.094,-0.150,-0.156,-0.137,-0.094
'0:01.292',-0.047,-0.109,-0.062,0.078,0.007,-0.086,0.031,-0.094,-0.153,-0.153,-0.137,-0.094
'0:01.293',-0.047,-0.109,-0.062,0.078,0.007,-0.086,0.031,-0.094,-0.150,-0.150,-0.137,-0.094
'0:01.294',-0.046,-0.111,-0.065,0.078,0.009,-0.088,0.028,-0.088,-0.153,-0.150,-0.131,-0.094
'0:01.295',-0.044,-0.109,-0.066,0.077,0.011,-0.088,0.031,-0.088,-0.156,-0.150,-0.131,-0.094
'0:01.296',-0.046,-0.111,-0.066,0.079,0.010,-0.089,0.034,-0.081,-0.147,-0.147,-0.128,-0.091
'0:01.297',-0.044,-0.106,-0.062,0.075,0.009,-0.084,0.031,-0.081,-0.144,-0.150,-0.131,-0.094
'0:01.298',-0.044,-0.108,-0.064,0.076,0.010,-0.086,0.031,-0.081,-0.147,-0.141,-0.125,-0.094
'0:01.299',-0.044,-0.109,-0.066,0.077,0.011,-0.088,0.031,-0.081,-0.150,-0.137,-0.119,-0.094
'0:01.300',-0.042,-0.106,-0.064,0.074,0.011,-0.085,0.028,-0.075,-0.141,-0.134,-0.119,-0.091
