'Elapsed time','I','II','III','AVR','AVL','AVF','V1','V2','V3','V4','V5','V6'
'hh:mm:ss.mmm','mV','mV','mV','mV','mV','mV','mV','mV','mV','mV','mV','mV'
'0:00.000',0.192,0.253,0.061,-0.222,0.065,0.157,-0.041,0.722,0.638,0.475,0.413,0.244
'0:00.001',0.191,0.253,0.063,-0.222,0.064,0.157,-0.038,0.719,0.638,0.475,0.413,0.250
'0:00.002',0.189,0.253,0.064,-0.221,0.063,0.158,-0.034,0.716,0.638,0.475,0.413,0.256
'0:00.003',0.188,0.253,0.066,-0.220,0.061,0.159,-0.031,0.712,0.638,0.475,0.413,0.262
'0:00.004',0.186,0.257,0.071,-0.221,0.058,0.164,-0.034,0.719,0.641,0.478,0.413,0.266
'0:00.005',0.181,0.256,0.075,-0.219,0.053,0.166,-0.031,0.719,0.638,0.475,0.413,0.262
'0:00.006',0.184,0.257,0.073,-0.221,0.056,0.165,-0.031,0.712,0.628,0.472,0.409,0.266
'0:00.007',0.188,0.263,0.075,-0.225,0.056,0.169,-0.031,0.700,0.613,0.469,0.406,0.262
'0:00.008',0.183,0.263,0.079,-0.222,0.052,0.171,-0.031,0.694,0.613,0.466,0.406,0.266
'0:00.009',0.175,0.263,0.088,-0.219,0.044,0.175,-0.031,0.681,0.600,0.462,0.400,0.262
'0:00.010',0.174,0.261,0.088,-0.218,0.043,0.174,-0.031,0.675,0.594,0.453,0.394,0.262
'0:00.011',0.166,0.256,0.091,-0.211,0.038,0.173,-0.031,0.669,0.588,0.444,0.388,0.256
'0:00.012',0.166,0.253,0.088,-0.209,0.039,0.170,-0.034,0.653,0.572,0.431,0.375,0.244
'0:00.013',0.163,0.250,0.088,-0.206,0.038,0.169,-0.031,0.644,0.569,0.425,0.369,0.237
'0:00.014',0.153,0.246,0.093,-0.199,0.030,0.169,-0.025,0.634,0.553,0.422,0.366,0.241
'0:00.015',0.147,0.237,0.091,-0.192,0.028,0.164,-0.019,0.619,0.544,0.419,0.363,0.237
'0:00.016',0.144,0.234,0.091,-0.189,0.026,0.162,-0.019,0.606,0.531,0.406,0.353,0.234
'0:00.017',0.144,0.234,0.091,-0.189,0.026,0.162,-0.019,0.587,0.513,0.388,0.344,0.225
'0:00.018',0.141,0.228,0.088,-0.184,0.026,0.157,-0.016,0.569,0.497,0.375,0.331,0.216
'0:00.019',0.134,0.222,0.088,-0.178,0.023,0.154,-0.006,0.550,0.475,0.363,0.319,0.212
'0:00.020',0.127,0.220,0.093,-0.173,0.017,0.156,-0.006,0.537,0.459,0.353,0.306,0.200
'0:00.021',0.122,0.219,0.097,-0.170,0.013,0.157,-0.006,0.519,0.438,0.337,0.294,0.194
'0:00.022',0.122,0.212,0.091,-0.167,0.016,0.151,-0.006,0.500,0.425,0.322,0.281,0.184
'0:00.023',0.122,0.206,0.084,-0.164,0.019,0.145,-0.006,0.487,0.413,0.306,0.275,0.181
'0:00.024',0.116,0.200,0.084,-0.158,0.016,0.142,-0.003,0.469,0.397,0.300,0.266,0.172
'0:00.025',0.103,0.187,0.084,-0.145,0.009,0.136,0.000,0.456,0.388,0.294,0.256,0.162
'0:00.026',0.104,0.178,0.074,-0.141,0.015,0.126,-0.003,0.438,0.363,0.278,0.241,0.153
'0:00.027',0.103,0.172,0.069,-0.137,0.017,0.120,0.000,0.419,0.344,0.262,0.225,0.150
'0:00.028',0.099,0.161,0.063,-0.130,0.018,0.112,0.003,0.403,0.331,0.247,0.213,0.141
'0:00.029',0.091,0.153,0.063,-0.122,0.014,0.107,0.006,0.388,0.313,0.231,0.200,0.137
'0:00.030',0.084,0.147,0.063,-0.116,0.011,0.104,0.009,0.372,0.297,0.216,0.194,0.125
'0:00.031',0.081,0.141,0.059,-0.111,0.011,0.100,0.012,0.350,0.275,0.200,0.175,0.112
'0:00.032',0.083,0.134,0.052,-0.108,0.015,0.093,0.016,0.334,0.266,0.191,0.162,0.103
'0:00.033',0.081,0.128,0.047,-0.104,0.017,0.087,0.019,0.319,0.250,0.175,0.150,0.094
'0:00.034',0.074,0.121,0.047,-0.097,0.013,0.084,0.025,0.306,0.238,0.163,0.141,0.091
'0:00.035',0.069,0.116,0.047,-0.092,0.011,0.081,0.025,0.288,0.225,0.150,0.131,0.087
'0:00.036',0.056,0.109,0.053,-0.082,0.001,0.081,0.025,0.275,0.203,0.137,0.116,0.075
'0:00.037',0.047,0.103,0.056,-0.075,-0.005,0.079,0.025,0.256,0.188,0.131,0.106,0.069
'0:00.038',0.039,0.091,0.051,-0.065,-0.006,0.071,0.028,0.241,0.175,0.112,0.097,0.066
'0:00.039',0.028,0.078,0.050,-0.053,-0.011,0.064,0.037,0.225,0.156,0.100,0.087,0.062
'0:00.040',0.025,0.071,0.046,-0.047,-0.011,0.058,0.037,0.216,0.144,0.091,0.081,0.050
'0:00.041',0.025,0.062,0.037,-0.044,-0.006,0.050,0.037,0.200,0.125,0.081,0.069,0.037
'0:00.042',0.026,0.058,0.032,-0.042,-0.003,0.045,0.037,0.181,0.116,0.066,0.053,0.031
'0:00.043',0.025,0.050,0.025,-0.038,0.000,0.037,0.037,0.169,0.100,0.056,0.044,0.025
'0:00.044',0.018,0.047,0.029,-0.032,-0.006,0.038,0.034,0.159,0.088,0.047,0.028,0.022
'0:00.045',0.012,0.041,0.028,-0.026,-0.008,0.034,0.031,0.144,0.075,0.037,0.019,0.012
'0:00.046',0.009,0.031,0.022,-0.020,-0.006,0.026,0.037,0.131,0.056,0.025,0.019,0.003
'0:00.047',0.009,0.022,0.012,-0.016,-0.002,0.017,0.037,0.113,0.044,0.013,0.013,0.000
'0:00.048',0.008,0.019,0.011,-0.013,-0.002,0.015,0.041,0.106,0.031,0.003,0.003,-0.016
'0:00.049',0.009,0.013,0.003,-0.011,0.003,0.007,0.044,0.094,0.025,-0.006,-0.006,-0.025
'0:00.050',0.006,0.003,-0.003,-0.004,0.004,0.000,0.047,0.081,0.019,-0.019,-0.016,-0.025
'0:00.051',0.000,-0.006,-0.006,0.003,0.003,-0.006,0.050,0.069,0.006,-0.025,-0.025,-0.025
'0:00.052',0.000,-0.009,-0.009,0.005,0.004,-0.009,0.056,0.063,-0.006,-0.041,-0.031,-0.031
'0:00.053',-0.006,-0.019,-0.012,0.013,0.003,-0.016,0.050,0.050,-0.013,-0.050,-0.038,-0.038
'0:00.054',-0.008,-0.022,-0.014,0.015,0.003,-0.018,0.047,0.034,-0.022,-0.053,-0.050,-0.044
'0:00.055',-0.012,-0.028,-0.016,0.021,0.001,-0.022,0.044,0.025,-0.031,-0.056,-0.050,-0.050
'0:00.056',-0.016,-0.028,-0.012,0.022,-0.002,-0.021,0.044,0.016,-0.041,-0.066,-0.056,-0.050
'0:00.057',-0.022,-0.034,-0.012,0.028,-0.005,-0.024,0.050,0.006,-0.050,-0.075,-0.063,-0.056
'0:00.058',-0.019,-0.041,-0.022,0.030,0.001,-0.031,0.041,-0.003,-0.059,-0.081,-0.063,-0.059
'0:00.059',-0.019,-0.044,-0.025,0.031,0.003,-0.034,0.037,-0.013,-0.069,-0.088,-0.069,-0.069
'0:00.060',-0.017,-0.050,-0.032,0.034,0.008,-0.041,0.041,-0.019,-0.075,-0.097,-0.084,-0.069
'0:00.061',-0.016,-0.056,-0.041,0.036,0.013,-0.049,0.037,-0.025,-0.081,-0.100,-0.088,-0.075
'0:00.062',-0.019,-0.059,-0.041,0.039,0.011,-0.050,0.037,-0.028,-0.088,-0.103,-0.091,-0.072
'0:00.063',-0.022,-0.066,-0.044,0.044,0.011,-0.055,0.037,-0.031,-0.094,-0.106,-0.094,-0.075
'0:00.064',-0.025,-0.072,-0.047,0.049,0.011,-0.059,0.041,-0.044,-0.100,-0.113,-0.094,-0.075
'0:00.065',-0.031,-0.075,-0.044,0.053,0.006,-0.059,0.044,-0.050,-0.106,-0.113,-0.100,-0.081
'0:00.066',-0.034,-0.080,-0.046,0.058,0.006,-0.063,0.041,-0.053,-0.113,-0.119,-0.100,-0.084
'0:00.067',-0.034,-0.081,-0.047,0.058,0.006,-0.064,0.037,-0.063,-0.119,-0.125,-0.106,-0.088
'0:00.068',-0.036,-0.084,-0.048,0.061,0.006,-0.066,0.037,-0.063,-0.125,-0.131,-0.109,-0.094
'0:00.069',-0.034,-0.087,-0.053,0.061,0.009,-0.071,0.037,-0.069,-0.125,-0.137,-0.119,-0.094
'0:00.070',-0.039,-0.084,-0.046,0.062,0.003,-0.065,0.037,-0.069,-0.131,-0.137,-0.122,-0.097
'0:00.071',-0.041,-0.087,-0.047,0.064,0.003,-0.068,0.037,-0.069,-0.138,-0.144,-0.119,-0.094
'0:00.072',-0.041,-0.086,-0.046,0.064,0.003,-0.066,0.037,-0.081,-0.138,-0.141,-0.122,-0.100
'0:00.073',-0.037,-0.087,-0.050,0.063,0.006,-0.069,0.037,-0.081,-0.144,-0.137,-0.119,-0.100
'0:00.074',-0.034,-0.091,-0.056,0.063,0.011,-0.074,0.034,-0.088,-0.141,-0.144,-0.125,-0.100
'0:00.075',-0.031,-0.091,-0.059,0.061,0.014,-0.075,0.031,-0.088,-0.144,-0.150,-0.125,-0.106
'0:00.076',-0.034,-0.091,-0.056,0.063,0.011,-0.074,0.034,-0.094,-0.150,-0.153,-0.128,-0.106
'0:00.077',-0.037,-0.097,-0.059,0.067,0.011,-0.078,0.037,-0.100,-0.150,-0.163,-0.137,-0.106
'0:00.078',-0.041,-0.100,-0.059,0.071,0.009,-0.080,0.037,-0.097,-0.159,-0.163,-0.137,-0.109
'0:00.079',-0.041,-0.103,-0.062,0.072,0.011,-0.083,0.037,-0.100,-0.163,-0.163,-0.144,-0.119
'0:00.080',-0.037,-0.102,-0.064,0.070,0.013,-0.083,0.034,-0.100,-0.163,-0.172,-0.147,-0.122
'0:00.081',-0.031,-0.100,-0.069,0.066,0.019,-0.084,0.031,-0.106,-0.169,-0.175,-0.150,-0.125
'0:00.082',-0.025,-0.097,-0.072,0.061,0.023,-0.084,0.031,-0.109,-0.172,-0.178,-0.150,-0.125
'0:00.083',-0.019,-0.097,-0.078,0.058,0.029,-0.088,0.031,-0.106,-0.169,-0.175,-0.156,-0.125
'0:00.084',-0.029,-0.101,-0.072,0.066,0.021,-0.087,0.031,-0.109,-0.175,-0.172,-0.156,-0.125
'0:00.085',-0.041,-0.103,-0.062,0.072,0.011,-0.083,0.031,-0.113,-0.175,-0.169,-0.156,-0.125
'0:00.086',-0.050,-0.106,-0.056,0.078,0.003,-0.081,0.031,-0.109,-0.175,-0.175,-0.150,-0.122
'0:00.087',-0.059,-0.106,-0.047,0.083,-0.006,-0.077,0.031,-0.113,-0.175,-0.175,-0.144,-0.119
'0:00.088',-0.058,-0.106,-0.048,0.083,-0.005,-0.078,0.031,-0.113,-0.172,-0.175,-0.150,-0.116
'0:00.089',-0.056,-0.106,-0.050,0.081,-0.003,-0.078,0.031,-0.119,-0.175,-0.181,-0.150,-0.119
'0:00.090',-0.052,-0.108,-0.056,0.080,0.002,-0.083,0.034,-0.116,-0.169,-0.181,-0.150,-0.116
'0:00.091',-0.047,-0.106,-0.059,0.077,0.006,-0.083,0.037,-0.119,-0.169,-0.181,-0.156,-0.119
'0:00.092',-0.050,-0.106,-0.056,0.078,0.003,-0.081,0.037,-0.116,-0.178,-0.188,-0.153,-0.119
'0:00.093',-0.053,-0.109,-0.056,0.081,0.001,-0.083,0.037,-0.113,-0.175,-0.181,-0.150,-0.119
'0:00.094',-0.049,-0.108,-0.059,0.079,0.005,-0.084,0.037,-0.113,-0.175,-0.178,-0.150,-0.119
'0:00.095',-0.044,-0.106,-0.062,0.075,0.009,-0.084,0.037,-0.113,-0.181,-0.181,-0.150,-0.119
'0:00.096',-0.044,-0.111,-0.067,0.077,0.011,-0.089,0.037,-0.113,-0.181,-0.175,-0.150,-0.122
'0:00.097',-0.037,-0.112,-0.075,0.075,0.019,-0.094,0.037,-0.113,-0.181,-0.181,-0.150,-0.125
'0:00.098',-0.041,-0.109,-0.069,0.075,0.014,-0.089,0.041,-0.119,-0.181,-0.178,-0.147,-0.125
'0:00.099',-0.041,-0.112,-0.072,0.077,0.016,-0.093,0.044,-0.119,-0.181,-0.175,-0.144,-0.125
'0:00.100',-0.042,-0.111,-0.069,0.077,0.014,-0.091,0.041,-0.116,-0.181,-0.175,-0.153,-0.134
'0:00.101',-0.041,-0.106,-0.066,0.074,0.013,-0.086,0.037,-0.119,-0.188,-0.175,-0.150,-0.131
'0:00.102',-0.041,-0.108,-0.067,0.074,0.013,-0.088,0.037,-0.119,-0.188,-0.175,-0.156,-0.128
'0:00.103',-0.044,-0.106,-0.062,0.075,0.009,-0.084,0.037,-0.119,-0.188,-0.175,-0.156,-0.125
'0:00.104',-0.050,-0.104,-0.054,0.077,0.002,-0.079,0.034,-0.122,-0.181,-0.175,-0.153,-0.128
'0:00.105',-0.050,-0.106,-0.056,0.078,0.003,-0.081,0.031,-0.125,-0.175,-0.175,-0.150,-0.119
'0:00.106',-0.051,-0.105,-0.054,0.078,0.001,-0.079,0.041,-0.122,-0.178,-0.172,-0.144,-0.119
'0:00.107',-0.056,-0.106,-0.050,0.081,-0.003,-0.078,0.050,-0.119,-0.181,-0.169,-0.144,-0.119
'0:00.108',-0.061,-0.109,-0.049,0.085,-0.006,-0.079,0.047,-0.122,-0.178,-0.169,-0.150,-0.119
'0:00.109',-0.062,-0.112,-0.050,0.088,-0.006,-0.081,0.044,-0.125,-0.175,-0.169,-0.150,-0.119
'0:00.110',-0.058,-0.112,-0.054,0.086,-0.002,-0.084,0.041,-0.122,-0.175,-0.172,-0.153,-0.119
'0:00.111',-0.053,-0.112,-0.059,0.083,0.003,-0.086,0.037,-0.119,-0.175,-0.175,-0.150,-0.119
'0:00.112',-0.047,-0.109,-0.062,0.078,0.008,-0.086,0.037,-0.122,-0.175,-0.175,-0.150,-0.119
'0:00.113',-0.041,-0.106,-0.066,0.074,0.013,-0.086,0.037,-0.125,-0.175,-0.175,-0.150,-0.119
'0:00.114',-0.039,-0.106,-0.067,0.073,0.014,-0.087,0.037,-0.116,-0.172,-0.175,-0.150,-0.119
'0:00.115',-0.037,-0.106,-0.069,0.072,0.016,-0.088,0.037,-0.113,-0.169,-0.175,-0.150,-0.119
'0:00.116',-0.045,-0.106,-0.061,0.076,0.008,-0.084,0.041,-0.122,-0.169,-0.175,-0.150,-0.119
'0:00.117',-0.047,-0.106,-0.059,0.077,0.006,-0.083,0.044,-0.119,-0.169,-0.169,-0.150,-0.119
'0:00.118',-0.047,-0.108,-0.061,0.077,0.007,-0.084,0.044,-0.116,-0.163,-0.172,-0.147,-0.116
'0:00.119',-0.053,-0.109,-0.056,0.081,0.001,-0.083,0.044,-0.113,-0.163,-0.169,-0.144,-0.113
'0:00.120',-0.052,-0.111,-0.059,0.081,0.003,-0.085,0.044,-0.109,-0.163,-0.159,-0.144,-0.113
'0:00.121',-0.050,-0.109,-0.059,0.080,0.004,-0.084,0.044,-0.106,-0.163,-0.163,-0.144,-0.113
'0:00.122',-0.042,-0.105,-0.062,0.074,0.010,-0.084,0.044,-0.109,-0.163,-0.166,-0.147,-0.109
'0:00.123',-0.037,-0.100,-0.062,0.069,0.013,-0.081,0.044,-0.113,-0.163,-0.169,-0.150,-0.106
'0:00.124',-0.039,-0.096,-0.057,0.067,0.009,-0.076,0.041,-0.109,-0.163,-0.166,-0.150,-0.109
'0:00.125',-0.041,-0.094,-0.053,0.067,0.006,-0.074,0.037,-0.106,-0.163,-0.175,-0.144,-0.113
'0:00.126',-0.039,-0.094,-0.054,0.067,0.008,-0.074,0.037,-0.109,-0.163,-0.166,-0.141,-0.116
'0:00.127',-0.044,-0.094,-0.050,0.069,0.003,-0.072,0.037,-0.106,-0.156,-0.163,-0.137,-0.119
'0:00.128',-0.042,-0.091,-0.049,0.066,0.003,-0.070,0.037,-0.106,-0.159,-0.166,-0.137,-0.113
'0:00.129',-0.047,-0.091,-0.044,0.069,-0.002,-0.068,0.037,-0.106,-0.156,-0.163,-0.137,-0.113
'0:00.130',-0.047,-0.092,-0.045,0.069,-0.001,-0.069,0.037,-0.106,-0.153,-0.163,-0.134,-0.113
'0:00.131',-0.047,-0.094,-0.047,0.071,0.000,-0.071,0.037,-0.106,-0.150,-0.163,-0.131,-0.113
'0:00.132',-0.045,-0.094,-0.049,0.069,0.002,-0.071,0.037,-0.103,-0.156,-0.159,-0.141,-0.113
'0:00.133',-0.050,-0.097,-0.047,0.074,-0.002,-0.072,0.037,-0.100,-0.150,-0.156,-0.137,-0.113
'0:00.134',-0.054,-0.097,-0.042,0.076,-0.006,-0.070,0.037,-0.100,-0.150,-0.153,-0.137,-0.109
'0:00.135',-0.056,-0.094,-0.037,0.075,-0.009,-0.066,0.037,-0.100,-0.150,-0.150,-0.137,-0.106
'0:00.136',-0.056,-0.093,-0.036,0.074,-0.010,-0.064,0.041,-0.100,-0.150,-0.150,-0.134,-0.106
'0:00.137',-0.056,-0.091,-0.034,0.074,-0.011,-0.063,0.044,-0.100,-0.150,-0.150,-0.131,-0.106
'0:00.138',-0.055,-0.092,-0.037,0.074,-0.009,-0.064,0.041,-0.100,-0.147,-0.147,-0.128,-0.106
'0:00.139',-0.053,-0.094,-0.041,0.074,-0.006,-0.068,0.037,-0.100,-0.144,-0.144,-0.125,-0.106
'0:00.140',-0.053,-0.091,-0.037,0.072,-0.008,-0.064,0.037,-0.094,-0.144,-0.147,-0.128,-0.103
'0:00.141',-0.053,-0.094,-0.041,0.074,-0.006,-0.068,0.037,-0.100,-0.144,-0.150,-0.131,-0.100
'0:00.142',-0.047,-0.089,-0.042,0.068,-0.002,-0.066,0.037,-0.103,-0.150,-0.153,-0.134,-0.103
'0:00.143',-0.044,-0.087,-0.044,0.066,0.000,-0.066,0.037,-0.106,-0.150,-0.150,-0.137,-0.106
'0:00.144',-0.044,-0.089,-0.045,0.066,0.001,-0.067,0.037,-0.097,-0.147,-0.150,-0.134,-0.106
'0:00.145',-0.044,-0.087,-0.044,0.066,0.000,-0.066,0.037,-0.094,-0.144,-0.150,-0.131,-0.106
'0:00.146',-0.041,-0.087,-0.047,0.064,0.003,-0.068,0.037,-0.091,-0.147,-0.150,-0.131,-0.109
'0:00.147',-0.037,-0.087,-0.050,0.063,0.006,-0.069,0.037,-0.088,-0.150,-0.150,-0.131,-0.113
'0:00.148',-0.041,-0.087,-0.047,0.064,0.003,-0.068,0.037,-0.091,-0.150,-0.150,-0.134,-0.113
'0:00.149',-0.041,-0.087,-0.047,0.064,0.003,-0.068,0.037,-0.094,-0.150,-0.150,-0.131,-0.113
'0:00.150',-0.044,-0.087,-0.044,0.066,0.000,-0.066,0.037,-0.084,-0.144,-0.150,-0.128,-0.113
'0:00.151',-0.044,-0.087,-0.044,0.066,0.000,-0.066,0.037,-0.088,-0.144,-0.150,-0.131,-0.113
'0:00.152',-0.045,-0.086,-0.041,0.066,-0.002,-0.063,0.037,-0.084,-0.144,-0.147,-0.131,-0.113
'0:00.153',-0.050,-0.087,-0.037,0.069,-0.006,-0.063,0.037,-0.088,-0.144,-0.144,-0.131,-0.113
'0:00.154',-0.052,-0.089,-0.037,0.071,-0.007,-0.063,0.037,-0.088,-0.141,-0.144,-0.128,-0.109
'0:00.155',-0.050,-0.094,-0.044,0.072,-0.003,-0.069,0.037,-0.088,-0.138,-0.144,-0.125,-0.106
'0:00.156',-0.053,-0.089,-0.036,0.071,-0.009,-0.063,0.037,-0.084,-0.138,-0.137,-0.125,-0.097
'0:00.157',-0.053,-0.091,-0.037,0.072,-0.008,-0.064,0.037,-0.081,-0.138,-0.137,-0.125,-0.100
'0:00.158',-0.053,-0.086,-0.033,0.070,-0.010,-0.060,0.037,-0.081,-0.138,-0.137,-0.128,-0.097
'0:00.159',-0.050,-0.084,-0.034,0.067,-0.008,-0.059,0.037,-0.081,-0.138,-0.137,-0.131,-0.094
'0:00.160',-0.049,-0.083,-0.034,0.066,-0.007,-0.059,0.041,-0.081,-0.128,-0.137,-0.125,-0.097
'0:00.161',-0.044,-0.081,-0.037,0.063,-0.003,-0.059,0.044,-0.081,-0.131,-0.137,-0.131,-0.100
'0:00.162',-0.044,-0.084,-0.041,0.064,-0.002,-0.063,0.041,-0.084,-0.131,-0.134,-0.131,-0.103
'0:00.163',-0.044,-0.087,-0.044,0.066,0.000,-0.066,0.037,-0.088,-0.131,-0.131,-0.125,-0.106
'0:00.164',-0.041,-0.084,-0.044,0.063,0.001,-0.064,0.037,-0.088,-0.131,-0.131,-0.128,-0.106
'0:00.165',-0.041,-0.084,-0.044,0.063,0.001,-0.064,0.037,-0.088,-0.131,-0.131,-0.125,-0.106
'0:00.166',-0.036,-0.080,-0.044,0.058,0.004,-0.062,0.037,-0.088,-0.134,-0.131,-0.125,-0.109
'0:00.167',-0.031,-0.075,-0.044,0.053,0.006,-0.059,0.037,-0.088,-0.138,-0.131,-0.125,-0.113
'0:00.168',-0.037,-0.078,-0.041,0.058,0.001,-0.059,0.037,-0.088,-0.138,-0.134,-0.131,-0.116
'0:00.169',-0.037,-0.078,-0.041,0.058,0.001,-0.059,0.037,-0.088,-0.138,-0.137,-0.131,-0.113
'0:00.170',-0.039,-0.076,-0.037,0.058,-0.001,-0.057,0.034,-0.088,-0.128,-0.134,-0.125,-0.106
'0:00.171',-0.037,-0.078,-0.041,0.058,0.001,-0.059,0.031,-0.088,-0.131,-0.131,-0.125,-0.100
'0:00.172',-0.033,-0.078,-0.045,0.056,0.006,-0.062,0.034,-0.091,-0.131,-0.131,-0.128,-0.103
'0:00.173',-0.034,-0.078,-0.044,0.056,0.004,-0.061,0.037,-0.094,-0.131,-0.131,-0.131,-0.106
'0:00.174',-0.042,-0.077,-0.035,0.059,-0.004,-0.056,0.037,-0.091,-0.134,-0.131,-0.131,-0.100
'0:00.175',-0.047,-0.075,-0.028,0.061,-0.009,-0.052,0.037,-0.088,-0.138,-0.131,-0.131,-0.100
'0:00.176',-0.044,-0.075,-0.031,0.059,-0.006,-0.053,0.037,-0.088,-0.134,-0.137,-0.128,-0.100
'0:00.177',-0.041,-0.072,-0.031,0.056,-0.005,-0.052,0.037,-0.088,-0.131,-0.137,-0.125,-0.100
'0:00.178',-0.039,-0.073,-0.034,0.056,-0.002,-0.054,0.037,-0.088,-0.134,-0.131,-0.125,-0.100
'0:00.179',-0.041,-0.078,-0.037,0.059,-0.002,-0.058,0.037,-0.088,-0.131,-0.137,-0.125,-0.100
'0:00.180',-0.042,-0.079,-0.037,0.061,-0.003,-0.058,0.041,-0.088,-0.128,-0.131,-0.128,-0.100
'0:00.181',-0.041,-0.087,-0.047,0.064,0.003,-0.068,0.044,-0.088,-0.131,-0.137,-0.131,-0.100
'0:00.182',-0.042,-0.089,-0.046,0.066,0.002,-0.068,0.044,-0.088,-0.131,-0.128,-0.131,-0.100
'0:00.183',-0.037,-0.087,-0.050,0.063,0.006,-0.069,0.044,-0.081,-0.131,-0.131,-0.131,-0.100
'0:00.184',-0.036,-0.086,-0.051,0.061,0.008,-0.069,0.044,-0.081,-0.131,-0.134,-0.128,-0.100
'0:00.185',-0.041,-0.087,-0.047,0.064,0.003,-0.068,0.044,-0.081,-0.131,-0.137,-0.131,-0.100
'0:00.186',-0.047,-0.091,-0.044,0.069,-0.002,-0.068,0.047,-0.081,-0.128,-0.128,-0.125,-0.100
'0:00.187',-0.050,-0.091,-0.041,0.071,-0.005,-0.066,0.050,-0.081,-0.125,-0.131,-0.131,-0.100
'0:00.188',-0.051,-0.086,-0.035,0.069,-0.008,-0.061,0.050,-0.084,-0.125,-0.134,-0.128,-0.103
'0:00.189',-0.053,-0.084,-0.031,0.069,-0.011,-0.058,0.050,-0.088,-0.125,-0.137,-0.131,-0.106
'0:00.190',-0.053,-0.087,-0.034,0.071,-0.009,-0.061,0.050,-0.088,-0.128,-0.137,-0.128,-0.106
'0:00.191',-0.050,-0.084,-0.034,0.067,-0.008,-0.059,0.050,-0.094,-0.131,-0.137,-0.131,-0.106
'0:00.192',-0.050,-0.083,-0.033,0.067,-0.009,-0.058,0.050,-0.088,-0.131,-0.137,-0.134,-0.106
'0:00.193',-0.050,-0.084,-0.034,0.067,-0.008,-0.059,0.050,-0.094,-0.131,-0.137,-0.137,-0.106
'0:00.194',-0.050,-0.083,-0.032,0.066,-0.009,-0.058,0.053,-0.094,-0.128,-0.134,-0.137,-0.106
'0:00.195',-0.050,-0.084,-0.034,0.067,-0.008,-0.059,0.056,-0.094,-0.131,-0.137,-0.137,-0.106
'0:00.196',-0.049,-0.078,-0.029,0.064,-0.010,-0.054,0.047,-0.094,-0.131,-0.141,-0.137,-0.106
'0:00.197',-0.047,-0.075,-0.028,0.061,-0.009,-0.052,0.044,-0.094,-0.131,-0.144,-0.137,-0.113
'0:00.198',-0.044,-0.075,-0.031,0.059,-0.006,-0.053,0.037,-0.103,-0.134,-0.144,-0.134,-0.116
'0:00.199',-0.037,-0.075,-0.037,0.056,0.000,-0.056,0.031,-0.106,-0.138,-0.144,-0.137,-0.113
'0:00.200',-0.039,-0.073,-0.034,0.056,-0.002,-0.054,0.031,-0.097,-0.141,-0.141,-0.134,-0.116
'0:00.201',-0.041,-0.075,-0.034,0.058,-0.003,-0.055,0.031,-0.100,-0.144,-0.137,-0.131,-0.113
'0:00.202',-0.039,-0.075,-0.036,0.058,-0.002,-0.056,0.034,-0.100,-0.141,-0.141,-0.134,-0.113
'0:00.203',-0.034,-0.075,-0.041,0.055,0.003,-0.058,0.037,-0.100,-0.138,-0.137,-0.137,-0.113
'0:00.204',-0.032,-0.079,-0.047,0.056,0.007,-0.063,0.037,-0.097,-0.134,-0.137,-0.137,-0.113
'0:00.205',-0.041,-0.087,-0.047,0.064,0.003,-0.068,0.037,-0.100,-0.138,-0.137,-0.137,-0.113
'0:00.206',-0.042,-0.087,-0.046,0.065,0.002,-0.067,0.037,-0.097,-0.134,-0.141,-0.137,-0.113
'0:00.207',-0.044,-0.087,-0.044,0.066,0.000,-0.066,0.044,-0.100,-0.138,-0.144,-0.137,-0.113
'0:00.208',-0.037,-0.084,-0.047,0.061,0.004,-0.066,0.037,-0.097,-0.144,-0.144,-0.144,-0.113
'0:00.209',-0.034,-0.081,-0.047,0.058,0.006,-0.064,0.044,-0.100,-0.144,-0.144,-0.144,-0.113
'0:00.210',-0.034,-0.079,-0.045,0.057,0.005,-0.063,0.041,-0.100,-0.144,-0.141,-0.147,-0.109
'0:00.211',-0.034,-0.081,-0.047,0.058,0.006,-0.064,0.044,-0.100,-0.144,-0.137,-0.150,-0.106
'0:00.212',-0.034,-0.086,-0.051,0.060,0.008,-0.069,0.041,-0.103,-0.150,-0.134,-0.150,-0.113
'0:00.213',-0.037,-0.084,-0.047,0.061,0.004,-0.066,0.037,-0.100,-0.150,-0.137,-0.156,-0.113
'0:00.214',-0.039,-0.083,-0.044,0.061,0.003,-0.064,0.037,-0.100,-0.150,-0.141,-0.156,-0.116
'0:00.215',-0.044,-0.084,-0.041,0.064,-0.002,-0.063,0.037,-0.100,-0.150,-0.144,-0.150,-0.119
'0:00.216',-0.048,-0.087,-0.039,0.068,-0.004,-0.064,0.041,-0.103,-0.150,-0.141,-0.147,-0.119
'0:00.217',-0.053,-0.091,-0.037,0.072,-0.008,-0.064,0.044,-0.106,-0.150,-0.137,-0.150,-0.113
'0:00.218',-0.056,-0.094,-0.037,0.075,-0.009,-0.066,0.044,-0.106,-0.147,-0.137,-0.147,-0.109
'0:00.219',-0.056,-0.094,-0.037,0.075,-0.009,-0.066,0.044,-0.106,-0.144,-0.137,-0.150,-0.106
'0:00.220',-0.050,-0.089,-0.039,0.070,-0.006,-0.064,0.047,-0.109,-0.144,-0.147,-0.153,-0.116
'0:00.221',-0.047,-0.084,-0.037,0.066,-0.005,-0.061,0.050,-0.113,-0.144,-0.156,-0.150,-0.113
'0:00.222',-0.048,-0.083,-0.035,0.066,-0.007,-0.059,0.047,-0.113,-0.144,-0.156,-0.153,-0.119
'0:00.223',-0.050,-0.084,-0.034,0.067,-0.008,-0.059,0.044,-0.113,-0.144,-0.156,-0.156,-0.119
'0:00.224',-0.046,-0.083,-0.037,0.064,-0.004,-0.061,0.041,-0.122,-0.147,-0.156,-0.156,-0.122
'0:00.225',-0.044,-0.081,-0.037,0.063,-0.003,-0.059,0.037,-0.119,-0.150,-0.156,-0.156,-0.125
'0:00.226',-0.047,-0.083,-0.036,0.065,-0.006,-0.059,0.037,-0.128,-0.153,-0.156,-0.156,-0.122
'0:00.227',-0.050,-0.087,-0.037,0.069,-0.006,-0.063,0.037,-0.131,-0.156,-0.163,-0.156,-0.119
'0:00.228',-0.046,-0.084,-0.039,0.065,-0.004,-0.062,0.037,-0.131,-0.153,-0.156,-0.156,-0.119
'0:00.229',-0.047,-0.087,-0.041,0.067,-0.003,-0.064,0.037,-0.131,-0.150,-0.163,-0.156,-0.119
'0:00.230',-0.044,-0.089,-0.045,0.066,0.001,-0.067,0.034,-0.131,-0.156,-0.163,-0.162,-0.119
'0:00.231',-0.044,-0.087,-0.044,0.066,0.000,-0.066,0.031,-0.131,-0.156,-0.163,-0.162,-0.119
'0:00.232',-0.044,-0.087,-0.044,0.066,0.000,-0.066,0.034,-0.134,-0.153,-0.163,-0.159,-0.119
'0:00.233',-0.044,-0.087,-0.044,0.066,0.000,-0.066,0.037,-0.131,-0.150,-0.163,-0.156,-0.119
'0:00.234',-0.047,-0.087,-0.041,0.067,-0.003,-0.064,0.037,-0.131,-0.159,-0.163,-0.156,-0.113
'0:00.235',-0.050,-0.087,-0.037,0.069,-0.006,-0.063,0.037,-0.131,-0.163,-0.163,-0.156,-0.113
'0:00.236',-0.050,-0.091,-0.041,0.071,-0.005,-0.066,0.037,-0.134,-0.163,-0.159,-0.159,-0.119
'0:00.237',-0.050,-0.091,-0.041,0.071,-0.005,-0.066,0.037,-0.138,-0.163,-0.156,-0.156,-0.125
'0:00.238',-0.051,-0.086,-0.035,0.069,-0.008,-0.061,0.037,-0.134,-0.163,-0.163,-0.156,-0.125
'0:00.239',-0.053,-0.084,-0.031,0.069,-0.011,-0.058,0.037,-0.131,-0.163,-0.163,-0.156,-0.125
'0:00.240',-0.053,-0.087,-0.034,0.071,-0.009,-0.061,0.034,-0.134,-0.166,-0.163,-0.156,-0.122
'0:00.241',-0.053,-0.087,-0.034,0.071,-0.009,-0.061,0.031,-0.138,-0.169,-0.163,-0.156,-0.119
'0:00.242',-0.053,-0.089,-0.036,0.071,-0.009,-0.063,0.031,-0.134,-0.169,-0.163,-0.159,-0.122
'0:00.243',-0.050,-0.091,-0.041,0.071,-0.005,-0.066,0.031,-0.138,-0.169,-0.163,-0.162,-0.125
'0:00.244',-0.047,-0.089,-0.042,0.068,-0.002,-0.066,0.022,-0.138,-0.169,-0.163,-0.166,-0.122
'0:00.245',-0.044,-0.091,-0.047,0.067,0.001,-0.069,0.025,-0.138,-0.169,-0.163,-0.169,-0.119
'0:00.246',-0.042,-0.091,-0.049,0.066,0.003,-0.070,0.028,-0.134,-0.169,-0.163,-0.169,-0.122
'0:00.247',-0.044,-0.091,-0.047,0.067,0.001,-0.069,0.031,-0.131,-0.169,-0.163,-0.169,-0.125
'0:00.248',-0.050,-0.095,-0.045,0.073,-0.002,-0.070,0.034,-0.131,-0.166,-0.159,-0.169,-0.125
'0:00.249',-0.056,-0.100,-0.044,0.078,-0.006,-0.072,0.037,-0.138,-0.163,-0.156,-0.169,-0.125
'0:00.250',-0.057,-0.100,-0.042,0.079,-0.007,-0.071,0.041,-0.131,-0.166,-0.159,-0.169,-0.122
'0:00.251',-0.056,-0.100,-0.044,0.078,-0.006,-0.072,0.037,-0.131,-0.169,-0.163,-0.169,-0.119
'0:00.252',-0.056,-0.096,-0.039,0.076,-0.009,-0.068,0.037,-0.134,-0.169,-0.166,-0.172,-0.119
'0:00.253',-0.053,-0.091,-0.037,0.072,-0.008,-0.064,0.025,-0.138,-0.169,-0.175,-0.175,-0.119
'0:00.254',-0.057,-0.091,-0.033,0.074,-0.012,-0.062,0.031,-0.138,-0.169,-0.172,-0.172,-0.116
'0:00.255',-0.056,-0.091,-0.034,0.074,-0.011,-0.063,0.025,-0.138,-0.169,-0.175,-0.169,-0.113
'0:00.256',-0.059,-0.093,-0.033,0.076,-0.013,-0.063,0.031,-0.144,-0.172,-0.169,-0.166,-0.122
'0:00.257',-0.053,-0.087,-0.034,0.071,-0.009,-0.061,0.025,-0.144,-0.169,-0.169,-0.169,-0.125
'0:00.258',-0.054,-0.086,-0.032,0.071,-0.011,-0.059,0.025,-0.144,-0.172,-0.172,-0.172,-0.122
'0:00.259',-0.056,-0.087,-0.031,0.072,-0.012,-0.059,0.025,-0.138,-0.175,-0.169,-0.175,-0.119
'0:00.260',-0.061,-0.089,-0.028,0.075,-0.016,-0.059,0.034,-0.138,-0.172,-0.166,-0.172,-0.119
'0:00.261',-0.062,-0.087,-0.025,0.075,-0.019,-0.056,0.037,-0.131,-0.169,-0.169,-0.169,-0.119
'0:00.262',-0.064,-0.094,-0.030,0.079,-0.017,-0.062,0.041,-0.131,-0.169,-0.169,-0.169,-0.119
'0:00.263',-0.066,-0.097,-0.031,0.081,-0.017,-0.064,0.037,-0.131,-0.169,-0.169,-0.169,-0.119
'0:00.264',-0.062,-0.096,-0.033,0.079,-0.015,-0.064,0.031,-0.134,-0.169,-0.169,-0.172,-0.119
'0:00.265',-0.062,-0.094,-0.031,0.078,-0.016,-0.063,0.031,-0.138,-0.169,-0.169,-0.175,-0.119
'0:00.266',-0.061,-0.093,-0.031,0.077,-0.015,-0.062,0.028,-0.141,-0.172,-0.169,-0.178,-0.122
'0:00.267',-0.059,-0.091,-0.031,0.075,-0.014,-0.061,0.031,-0.144,-0.175,-0.169,-0.181,-0.125
'0:00.268',-0.055,-0.091,-0.036,0.073,-0.010,-0.063,0.031,-0.141,-0.175,-0.172,-0.181,-0.125
'0:00.269',-0.053,-0.091,-0.037,0.072,-0.008,-0.064,0.031,-0.138,-0.175,-0.175,-0.181,-0.125
'0:00.270',-0.050,-0.089,-0.039,0.069,-0.006,-0.064,0.031,-0.147,-0.178,-0.178,-0.191,-0.125
'0:00.271',-0.050,-0.091,-0.041,0.071,-0.005,-0.066,0.031,-0.144,-0.175,-0.181,-0.188,-0.125
'0:00.272',-0.053,-0.089,-0.036,0.071,-0.009,-0.063,0.031,-0.150,-0.172,-0.181,-0.184,-0.125
'0:00.273',-0.053,-0.091,-0.037,0.072,-0.008,-0.064,0.031,-0.144,-0.175,-0.181,-0.188,-0.125
'0:00.274',-0.054,-0.091,-0.036,0.073,-0.009,-0.064,0.031,-0.144,-0.178,-0.178,-0.184,-0.125
'0:00.275',-0.059,-0.091,-0.031,0.075,-0.014,-0.061,0.037,-0.144,-0.181,-0.175,-0.181,-0.125
'0:00.276',-0.061,-0.094,-0.033,0.077,-0.014,-0.064,0.034,-0.141,-0.175,-0.184,-0.175,-0.125
'0:00.277',-0.062,-0.094,-0.031,0.078,-0.016,-0.063,0.037,-0.138,-0.169,-0.181,-0.175,-0.125
'0:00.278',-0.061,-0.094,-0.032,0.077,-0.014,-0.063,0.034,-0.144,-0.172,-0.178,-0.175,-0.125
'0:00.279',-0.059,-0.091,-0.031,0.075,-0.014,-0.061,0.037,-0.138,-0.175,-0.175,-0.175,-0.125
'0:00.280',-0.062,-0.097,-0.034,0.080,-0.014,-0.066,0.037,-0.147,-0.172,-0.178,-0.178,-0.125
'0:00.281',-0.062,-0.100,-0.037,0.081,-0.012,-0.069,0.037,-0.144,-0.169,-0.181,-0.181,-0.125
'0:00.282',-0.064,-0.101,-0.037,0.083,-0.013,-0.069,0.034,-0.150,-0.166,-0.178,-0.175,-0.125
'0:00.283',-0.066,-0.103,-0.037,0.084,-0.014,-0.071,0.031,-0.144,-0.163,-0.175,-0.175,-0.125
'0:00.284',-0.064,-0.100,-0.036,0.083,-0.014,-0.068,0.034,-0.141,-0.169,-0.175,-0.181,-0.134
'0:00.285',-0.062,-0.100,-0.037,0.081,-0.012,-0.069,0.037,-0.144,-0.163,-0.181,-0.181,-0.131
'0:00.286',-0.058,-0.097,-0.039,0.077,-0.010,-0.068,0.028,-0.144,-0.169,-0.172,-0.178,-0.134
'0:00.287',-0.053,-0.097,-0.044,0.075,-0.005,-0.071,0.031,-0.144,-0.163,-0.175,-0.175,-0.138
'0:00.288',-0.052,-0.096,-0.044,0.074,-0.004,-0.070,0.028,-0.147,-0.169,-0.172,-0.178,-0.134
'0:00.289',-0.053,-0.094,-0.041,0.074,-0.006,-0.068,0.019,-0.150,-0.169,-0.175,-0.175,-0.131
'0:00.290',-0.054,-0.097,-0.042,0.076,-0.006,-0.070,0.025,-0.147,-0.163,-0.175,-0.169,-0.134
'0:00.291',-0.059,-0.097,-0.037,0.078,-0.011,-0.068,0.025,-0.150,-0.163,-0.175,-0.175,-0.138
'0:00.292',-0.058,-0.096,-0.037,0.077,-0.011,-0.067,0.028,-0.147,-0.163,-0.175,-0.175,-0.138
'0:00.293',-0.056,-0.094,-0.037,0.075,-0.009,-0.066,0.025,-0.144,-0.163,-0.175,-0.175,-0.138
'0:00.294',-0.053,-0.094,-0.041,0.074,-0.006,-0.068,0.025,-0.147,-0.166,-0.178,-0.178,-0.138
'0:00.295',-0.050,-0.094,-0.044,0.072,-0.003,-0.069,0.025,-0.144,-0.169,-0.181,-0.181,-0.138
'0:00.296',-0.051,-0.095,-0.044,0.073,-0.004,-0.069,0.025,-0.144,-0.169,-0.178,-0.181,-0.138
'0:00.297',-0.050,-0.094,-0.044,0.072,-0.003,-0.069,0.025,-0.144,-0.169,-0.181,-0.181,-0.138
'0:00.298',-0.056,-0.097,-0.041,0.077,-0.008,-0.069,0.031,-0.147,-0.178,-0.178,-0.178,-0.138
'0:00.299',-0.062,-0.100,-0.037,0.081,-0.012,-0.069,0.031,-0.150,-0.175,-0.181,-0.175,-0.138
'0:00.300',-0.059,-0.106,-0.047,0.083,-0.006,-0.077,0.031,-0.144,-0.175,-0.181,-0.175,-0.141
'0:00.301',-0.056,-0.106,-0.050,0.081,-0.003,-0.078,0.031,-0.144,-0.175,-0.181,-0.175,-0.144
'0:00.302',-0.052,-0.099,-0.047,0.076,-0.002,-0.073,0.028,-0.144,-0.175,-0.181,-0.172,-0.141
'0:00.303',-0.047,-0.094,-0.047,0.071,0.000,-0.071,0.025,-0.144,-0.175,-0.181,-0.175,-0.138
'0:00.304',-0.047,-0.095,-0.048,0.071,0.001,-0.072,0.028,-0.144,-0.175,-0.178,-0.178,-0.138
'0:00.305',-0.050,-0.097,-0.047,0.074,-0.002,-0.072,0.031,-0.144,-0.175,-0.175,-0.181,-0.138
'0:00.306',-0.054,-0.097,-0.042,0.076,-0.006,-0.070,0.031,-0.144,-0.169,-0.175,-0.178,-0.141
'0:00.307',-0.059,-0.100,-0.041,0.080,-0.009,-0.071,0.031,-0.144,-0.169,-0.175,-0.175,-0.144
'0:00.308',-0.061,-0.098,-0.037,0.079,-0.012,-0.068,0.037,-0.138,-0.169,-0.175,-0.175,-0.141
'0:00.309',-0.062,-0.103,-0.041,0.083,-0.011,-0.072,0.037,-0.144,-0.169,-0.175,-0.175,-0.138
'0:00.310',-0.062,-0.103,-0.041,0.083,-0.011,-0.072,0.041,-0.147,-0.175,-0.175,-0.172,-0.138
'0:00.311',-0.062,-0.103,-0.041,0.083,-0.011,-0.072,0.037,-0.144,-0.169,-0.175,-0.175,-0.138
'0:00.312',-0.058,-0.106,-0.048,0.083,-0.005,-0.078,0.034,-0.144,-0.166,-0.175,-0.175,-0.134
'0:00.313',-0.059,-0.106,-0.047,0.083,-0.006,-0.077,0.037,-0.144,-0.163,-0.175,-0.175,-0.131
'0:00.314',-0.064,-0.111,-0.047,0.088,-0.009,-0.079,0.031,-0.141,-0.163,-0.172,-0.175,-0.138
'0:00.315',-0.062,-0.112,-0.050,0.088,-0.006,-0.081,0.031,-0.131,-0.163,-0.169,-0.175,-0.138
'0:00.316',-0.064,-0.119,-0.055,0.091,-0.004,-0.087,0.034,-0.141,-0.163,-0.178,-0.181,-0.141
'0:00.317',-0.062,-0.122,-0.059,0.092,-0.002,-0.091,0.037,-0.144,-0.163,-0.181,-0.181,-0.138
'0:00.318',-0.056,-0.128,-0.072,0.092,0.008,-0.100,0.031,-0.147,-0.166,-0.181,-0.181,-0.141
'0:00.319',-0.050,-0.128,-0.078,0.089,0.014,-0.103,0.031,-0.150,-0.169,-0.181,-0.181,-0.144
'0:00.320',-0.041,-0.122,-0.081,0.081,0.020,-0.102,0.028,-0.147,-0.166,-0.181,-0.184,-0.147
'0:00.321',-0.031,-0.122,-0.091,0.077,0.029,-0.106,0.025,-0.150,-0.169,-0.181,-0.181,-0.144
'0:00.322',-0.032,-0.117,-0.084,0.075,0.026,-0.101,0.031,-0.141,-0.163,-0.178,-0.181,-0.147
'0:00.323',-0.031,-0.119,-0.087,0.075,0.028,-0.103,0.031,-0.138,-0.163,-0.181,-0.181,-0.150
'0:00.324',-0.032,-0.114,-0.081,0.073,0.024,-0.098,0.031,-0.134,-0.163,-0.172,-0.175,-0.150
'0:00.325',-0.031,-0.109,-0.078,0.071,0.023,-0.094,0.031,-0.131,-0.156,-0.169,-0.175,-0.144
'0:00.326',-0.031,-0.106,-0.075,0.069,0.022,-0.091,0.031,-0.125,-0.150,-0.166,-0.169,-0.138
'0:00.327',-0.031,-0.097,-0.066,0.064,0.017,-0.081,0.037,-0.119,-0.144,-0.163,-0.162,-0.138
'0:00.328',-0.027,-0.081,-0.054,0.054,0.014,-0.068,0.047,-0.109,-0.141,-0.153,-0.156,-0.128
'0:00.329',-0.025,-0.069,-0.044,0.047,0.009,-0.056,0.056,-0.100,-0.131,-0.144,-0.150,-0.125
'0:00.330',-0.031,-0.056,-0.025,0.044,-0.003,-0.041,0.066,-0.097,-0.131,-0.137,-0.144,-0.119
'0:00.331',-0.034,-0.047,-0.012,0.041,-0.011,-0.030,0.062,-0.094,-0.125,-0.131,-0.137,-0.113
'0:00.332',-0.034,-0.042,-0.007,0.038,-0.014,-0.025,0.062,-0.091,-0.113,-0.131,-0.134,-0.103
'0:00.333',-0.037,-0.038,0.000,0.038,-0.019,-0.019,0.062,-0.081,-0.106,-0.125,-0.125,-0.094
'0:00.334',-0.036,-0.034,0.001,0.035,-0.019,-0.017,0.066,-0.081,-0.103,-0.125,-0.125,-0.094
'0:00.335',-0.034,-0.028,0.006,0.031,-0.021,-0.011,0.062,-0.081,-0.106,-0.119,-0.125,-0.094
'0:00.336',-0.034,-0.024,0.011,0.029,-0.022,-0.007,0.062,-0.088,-0.109,-0.119,-0.125,-0.097
'0:00.337',-0.034,-0.019,0.016,0.027,-0.025,-0.002,0.062,-0.081,-0.113,-0.119,-0.125,-0.100
'0:00.338',-0.032,-0.019,0.014,0.026,-0.023,-0.003,0.059,-0.078,-0.113,-0.119,-0.125,-0.100
'0:00.339',-0.034,-0.019,0.016,0.027,-0.025,-0.002,0.062,-0.075,-0.113,-0.119,-0.125,-0.100
'0:00.340',-0.025,-0.017,0.008,0.021,-0.016,-0.005,0.053,-0.081,-0.116,-0.116,-0.125,-0.100
'0:00.341',-0.019,-0.019,0.000,0.019,-0.009,-0.009,0.050,-0.081,-0.113,-0.113,-0.125,-0.100
'0:00.342',-0.017,-0.022,-0.005,0.019,-0.006,-0.014,0.050,-0.081,-0.113,-0.116,-0.122,-0.100
'0:00.343',-0.016,-0.025,-0.009,0.021,-0.003,-0.018,0.050,-0.081,-0.113,-0.113,-0.119,-0.100
'0:00.344',-0.012,-0.029,-0.017,0.021,0.002,-0.023,0.037,-0.084,-0.119,-0.119,-0.128,-0.109
'0:00.345',-0.012,-0.031,-0.019,0.022,0.003,-0.025,0.031,-0.088,-0.119,-0.119,-0.131,-0.106
'0:00.346',-0.008,-0.029,-0.021,0.019,0.006,-0.026,0.031,-0.091,-0.116,-0.122,-0.128,-0.113
'0:00.347',-0.006,-0.028,-0.022,0.018,0.008,-0.025,0.031,-0.088,-0.113,-0.125,-0.125,-0.113
'0:00.348',-0.002,-0.019,-0.017,0.011,0.008,-0.018,0.028,-0.091,-0.106,-0.116,-0.128,-0.103
'0:00.349',0.003,-0.009,-0.012,0.003,0.008,-0.011,0.025,-0.081,-0.100,-0.106,-0.125,-0.088
'0:00.350',0.006,-0.003,-0.009,-0.001,0.008,-0.006,0.028,-0.072,-0.091,-0.100,-0.116,-0.081
'0:00.351',0.006,0.000,-0.006,-0.003,0.006,-0.003,0.025,-0.069,-0.081,-0.100,-0.106,-0.075
'0:00.352',-0.004,0.008,0.012,-0.001,-0.008,0.009,0.031,-0.066,-0.081,-0.094,-0.100,-0.078
'0:00.353',-0.009,0.013,0.022,-0.001,-0.016,0.017,0.037,-0.056,-0.075,-0.088,-0.100,-0.075
'0:00.354',-0.008,0.020,0.028,-0.006,-0.017,0.024,0.037,-0.056,-0.066,-0.081,-0.097,-0.072
'0:00.355',-0.012,0.028,0.041,-0.007,-0.027,0.034,0.037,-0.056,-0.056,-0.069,-0.088,-0.063
'0:00.356',-0.011,0.029,0.041,-0.009,-0.026,0.035,0.037,-0.053,-0.056,-0.066,-0.078,-0.056
'0:00.357',-0.012,0.034,0.047,-0.011,-0.030,0.041,0.037,-0.056,-0.056,-0.062,-0.081,-0.063
'0:00.358',-0.012,0.036,0.049,-0.012,-0.031,0.042,0.044,-0.056,-0.056,-0.059,-0.081,-0.063
'0:00.359',-0.012,0.034,0.047,-0.011,-0.030,0.041,0.050,-0.056,-0.056,-0.062,-0.081,-0.063
'0:00.360',-0.012,0.036,0.048,-0.011,-0.031,0.042,0.050,-0.059,-0.063,-0.062,-0.078,-0.063
'0:00.361',-0.019,0.038,0.056,-0.009,-0.037,0.047,0.050,-0.056,-0.063,-0.062,-0.081,-0.063
'0:00.362',-0.021,0.034,0.055,-0.007,-0.038,0.044,0.050,-0.056,-0.069,-0.069,-0.084,-0.063
'0:00.363',-0.016,0.034,0.050,-0.009,-0.033,0.042,0.050,-0.056,-0.075,-0.075,-0.088,-0.063
'0:00.364',-0.016,0.031,0.047,-0.007,-0.031,0.039,0.056,-0.056,-0.075,-0.075,-0.084,-0.066
'0:00.365',-0.016,0.025,0.041,-0.004,-0.028,0.033,0.056,-0.056,-0.075,-0.081,-0.081,-0.063
'0:00.366',-0.019,0.022,0.041,-0.001,-0.030,0.031,0.056,-0.059,-0.072,-0.072,-0.084,-0.059
'0:00.367',-0.022,0.016,0.037,0.003,-0.030,0.026,0.056,-0.063,-0.069,-0.075,-0.088,-0.056
'0:00.368',-0.020,0.009,0.029,0.006,-0.025,0.019,0.059,-0.059,-0.063,-0.072,-0.088,-0.063
'0:00.369',-0.019,0.006,0.025,0.006,-0.022,0.016,0.056,-0.056,-0.063,-0.075,-0.094,-0.069
'0:00.370',-0.014,-0.001,0.013,0.008,-0.014,0.006,0.047,-0.063,-0.072,-0.088,-0.100,-0.072
'0:00.371',-0.009,-0.009,0.000,0.009,-0.005,-0.005,0.044,-0.063,-0.075,-0.088,-0.100,-0.075
'0:00.372',-0.011,-0.011,-0.001,0.011,-0.005,-0.006,0.047,-0.069,-0.075,-0.097,-0.100,-0.078
'0:00.373',-0.009,-0.009,0.000,0.009,-0.005,-0.005,0.044,-0.069,-0.081,-0.100,-0.106,-0.081
'0:00.374',-0.012,-0.011,0.001,0.012,-0.007,-0.005,0.041,-0.069,-0.081,-0.097,-0.103,-0.078
'0:00.375',-0.012,-0.013,0.000,0.013,-0.006,-0.006,0.037,-0.075,-0.088,-0.100,-0.100,-0.081
'0:00.376',-0.012,-0.020,-0.007,0.016,-0.002,-0.014,0.037,-0.081,-0.097,-0.097,-0.100,-0.078
'0:00.377',-0.016,-0.031,-0.016,0.024,0.000,-0.024,0.037,-0.081,-0.100,-0.100,-0.106,-0.081
'0:00.378',-0.012,-0.036,-0.023,0.024,0.005,-0.029,0.034,-0.088,-0.100,-0.100,-0.106,-0.081
'0:00.379',-0.016,-0.044,-0.028,0.030,0.006,-0.036,0.037,-0.088,-0.100,-0.100,-0.112,-0.081
'0:00.380',-0.014,-0.044,-0.029,0.029,0.008,-0.037,0.028,-0.084,-0.097,-0.100,-0.112,-0.088
'0:00.381',-0.012,-0.044,-0.031,0.028,0.009,-0.038,0.025,-0.081,-0.100,-0.106,-0.112,-0.088
'0:00.382',-0.016,-0.044,-0.028,0.030,0.006,-0.036,0.025,-0.078,-0.100,-0.106,-0.119,-0.084
'0:00.383',-0.016,-0.044,-0.028,0.030,0.006,-0.036,0.025,-0.081,-0.100,-0.106,-0.119,-0.081
'0:00.384',-0.017,-0.044,-0.026,0.031,0.004,-0.035,0.022,-0.081,-0.103,-0.109,-0.116,-0.078
'0:00.385',-0.019,-0.047,-0.028,0.033,0.004,-0.038,0.025,-0.081,-0.106,-0.106,-0.112,-0.075
'0:00.386',-0.025,-0.047,-0.022,0.036,-0.002,-0.034,0.031,-0.081,-0.103,-0.103,-0.109,-0.075
'0:00.387',-0.031,-0.050,-0.019,0.041,-0.006,-0.034,0.037,-0.081,-0.100,-0.106,-0.106,-0.075
'0:00.388',-0.034,-0.054,-0.020,0.044,-0.007,-0.038,0.034,-0.091,-0.103,-0.103,-0.112,-0.078
'0:00.389',-0.037,-0.062,-0.025,0.050,-0.006,-0.044,0.031,-0.094,-0.100,-0.106,-0.119,-0.081
'0:00.390',-0.039,-0.064,-0.025,0.052,-0.007,-0.045,0.031,-0.100,-0.100,-0.106,-0.119,-0.088
'0:00.391',-0.041,-0.066,-0.025,0.053,-0.008,-0.046,0.031,-0.100,-0.100,-0.113,-0.125,-0.088
'0:00.392',-0.041,-0.066,-0.025,0.053,-0.008,-0.046,0.041,-0.103,-0.109,-0.116,-0.125,-0.091
'0:00.393',-0.037,-0.066,-0.028,0.052,-0.005,-0.047,0.037,-0.113,-0.113,-0.125,-0.131,-0.100
'0:00.394',-0.036,-0.072,-0.036,0.054,0.000,-0.054,0.034,-0.106,-0.113,-0.122,-0.128,-0.097
'0:00.395',-0.041,-0.084,-0.044,0.063,0.001,-0.064,0.031,-0.119,-0.125,-0.125,-0.131,-0.100
'0:00.396',-0.047,-0.094,-0.047,0.071,0.000,-0.071,0.031,-0.116,-0.125,-0.125,-0.137,-0.106
'0:00.397',-0.053,-0.100,-0.047,0.077,-0.003,-0.074,0.031,-0.119,-0.131,-0.131,-0.144,-0.113
'0:00.398',-0.055,-0.105,-0.050,0.080,-0.002,-0.078,0.028,-0.119,-0.138,-0.131,-0.147,-0.116
'0:00.399',-0.056,-0.109,-0.053,0.083,-0.002,-0.081,0.025,-0.125,-0.138,-0.137,-0.156,-0.119
'0:00.400',-0.055,-0.112,-0.057,0.084,0.001,-0.085,0.025,-0.128,-0.144,-0.147,-0.156,-0.119
'0:00.401',-0.047,-0.116,-0.069,0.081,0.011,-0.093,0.019,-0.138,-0.144,-0.150,-0.156,-0.125
'0:00.402',-0.052,-0.119,-0.067,0.086,0.008,-0.093,0.025,-0.138,-0.144,-0.159,-0.166,-0.134
'0:00.403',-0.050,-0.119,-0.069,0.084,0.009,-0.094,0.025,-0.144,-0.150,-0.163,-0.169,-0.138
'0:00.404',-0.047,-0.116,-0.069,0.081,0.011,-0.093,0.016,-0.147,-0.153,-0.163,-0.169,-0.141
'0:00.405',-0.047,-0.116,-0.069,0.081,0.011,-0.093,0.019,-0.150,-0.156,-0.163,-0.169,-0.144
'0:00.406',-0.048,-0.117,-0.069,0.083,0.010,-0.093,0.019,-0.141,-0.156,-0.163,-0.169,-0.144
'0:00.407',-0.053,-0.116,-0.062,0.084,0.004,-0.089,0.019,-0.144,-0.163,-0.163,-0.169,-0.144
'0:00.408',-0.053,-0.116,-0.062,0.084,0.004,-0.089,0.022,-0.141,-0.163,-0.163,-0.169,-0.144
'0:00.409',-0.056,-0.116,-0.059,0.086,0.001,-0.088,0.025,-0.144,-0.163,-0.163,-0.169,-0.144
'0:00.410',-0.064,-0.109,-0.046,0.087,-0.009,-0.078,0.028,-0.147,-0.163,-0.166,-0.166,-0.144
'0:00.411',-0.069,-0.112,-0.044,0.091,-0.012,-0.078,0.031,-0.150,-0.163,-0.163,-0.162,-0.144
'0:00.412',-0.070,-0.120,-0.050,0.095,-0.010,-0.085,0.031,-0.147,-0.159,-0.156,-0.162,-0.144
'0:00.413',-0.072,-0.122,-0.050,0.097,-0.011,-0.086,0.031,-0.144,-0.156,-0.156,-0.162,-0.144
'0:00.414',-0.075,-0.125,-0.050,0.100,-0.012,-0.088,0.034,-0.141,-0.159,-0.156,-0.166,-0.141
'0:00.415',-0.075,-0.128,-0.053,0.102,-0.011,-0.091,0.037,-0.138,-0.156,-0.156,-0.175,-0.138
'0:00.416',-0.074,-0.128,-0.054,0.101,-0.010,-0.091,0.031,-0.144,-0.156,-0.156,-0.169,-0.138
'0:00.417',-0.075,-0.128,-0.053,0.102,-0.011,-0.091,0.031,-0.144,-0.156,-0.156,-0.169,-0.138
'0:00.418',-0.072,-0.130,-0.058,0.101,-0.007,-0.094,0.031,-0.144,-0.153,-0.159,-0.169,-0.138
'0:00.419',-0.072,-0.131,-0.059,0.102,-0.006,-0.096,0.031,-0.144,-0.156,-0.156,-0.175,-0.138
'0:00.420',-0.072,-0.128,-0.056,0.100,-0.008,-0.093,0.031,-0.153,-0.159,-0.163,-0.172,-0.138
'0:00.421',-0.069,-0.128,-0.059,0.099,-0.005,-0.094,0.031,-0.156,-0.163,-0.169,-0.169,-0.138
'0:00.422',-0.067,-0.128,-0.061,0.098,-0.003,-0.095,0.028,-0.156,-0.163,-0.163,-0.169,-0.134
'0:00.423',-0.069,-0.128,-0.059,0.099,-0.005,-0.094,0.025,-0.156,-0.163,-0.169,-0.175,-0.138
'0:00.424',-0.066,-0.128,-0.062,0.097,-0.002,-0.096,0.025,-0.156,-0.163,-0.172,-0.172,-0.138
'0:00.425',-0.069,-0.128,-0.059,0.099,-0.005,-0.094,0.025,-0.150,-0.163,-0.175,-0.175,-0.138
'0:00.426',-0.070,-0.128,-0.058,0.099,-0.006,-0.093,0.028,-0.150,-0.153,-0.169,-0.175,-0.138
'0:00.427',-0.069,-0.128,-0.059,0.099,-0.005,-0.094,0.031,-0.150,-0.156,-0.169,-0.175,-0.138
'0:00.428',-0.062,-0.128,-0.066,0.096,0.001,-0.097,0.031,-0.150,-0.163,-0.169,-0.175,-0.141
'0:00.429',-0.066,-0.128,-0.062,0.097,-0.002,-0.096,0.031,-0.150,-0.163,-0.169,-0.175,-0.138
'0:00.430',-0.070,-0.127,-0.057,0.099,-0.007,-0.092,0.031,-0.150,-0.163,-0.169,-0.175,-0.134
'0:00.431',-0.072,-0.125,-0.053,0.099,-0.009,-0.089,0.031,-0.156,-0.163,-0.175,-0.175,-0.138
'0:00.432',-0.066,-0.127,-0.061,0.096,-0.002,-0.094,0.031,-0.159,-0.166,-0.175,-0.175,-0.144
'0:00.433',-0.069,-0.125,-0.056,0.097,-0.006,-0.091,0.031,-0.163,-0.163,-0.175,-0.175,-0.144
'0:00.434',-0.072,-0.125,-0.053,0.099,-0.009,-0.089,0.031,-0.153,-0.166,-0.172,-0.175,-0.141
'0:00.435',-0.075,-0.125,-0.050,0.100,-0.012,-0.088,0.031,-0.156,-0.169,-0.175,-0.175,-0.138
'0:00.436',-0.079,-0.126,-0.047,0.103,-0.016,-0.087,0.028,-0.159,-0.166,-0.172,-0.178,-0.138
'0:00.437',-0.084,-0.128,-0.044,0.106,-0.021,-0.086,0.025,-0.156,-0.169,-0.169,-0.175,-0.138
'0:00.438',-0.082,-0.129,-0.047,0.106,-0.018,-0.088,0.028,-0.153,-0.166,-0.169,-0.175,-0.138
'0:00.439',-0.087,-0.128,-0.041,0.108,-0.024,-0.084,0.031,-0.150,-0.163,-0.169,-0.175,-0.138
'0:00.440',-0.075,-0.125,-0.050,0.100,-0.012,-0.088,0.031,-0.153,-0.166,-0.172,-0.175,-0.138
'0:00.441',-0.072,-0.122,-0.050,0.097,-0.011,-0.086,0.031,-0.156,-0.169,-0.175,-0.175,-0.138
'0:00.442',-0.074,-0.124,-0.050,0.099,-0.012,-0.087,0.028,-0.153,-0.166,-0.172,-0.172,-0.138
'0:00.443',-0.072,-0.122,-0.050,0.097,-0.011,-0.086,0.031,-0.144,-0.163,-0.169,-0.175,-0.138
'0:00.444',-0.072,-0.120,-0.048,0.096,-0.012,-0.084,0.028,-0.153,-0.169,-0.169,-0.178,-0.138
'0:00.445',-0.072,-0.122,-0.050,0.097,-0.011,-0.086,0.031,-0.150,-0.169,-0.163,-0.181,-0.138
'0:00.446',-0.071,-0.125,-0.054,0.098,-0.008,-0.090,0.031,-0.150,-0.169,-0.166,-0.181,-0.141
'0:00.447',-0.069,-0.125,-0.056,0.097,-0.006,-0.091,0.031,-0.150,-0.169,-0.169,-0.175,-0.144
'0:00.448',-0.072,-0.125,-0.053,0.099,-0.009,-0.089,0.031,-0.150,-0.166,-0.163,-0.175,-0.141
'0:00.449',-0.072,-0.125,-0.053,0.099,-0.009,-0.089,0.031,-0.150,-0.163,-0.156,-0.181,-0.138
'0:00.450',-0.072,-0.124,-0.052,0.098,-0.010,-0.088,0.028,-0.150,-0.163,-0.156,-0.178,-0.138
'0:00.451',-0.069,-0.122,-0.053,0.096,-0.008,-0.088,0.025,-0.150,-0.163,-0.156,-0.169,-0.138
'0:00.452',-0.071,-0.121,-0.050,0.096,-0.011,-0.086,0.025,-0.153,-0.163,-0.156,-0.178,-0.144
'0:00.453',-0.069,-0.122,-0.053,0.096,-0.008,-0.088,0.031,-0.156,-0.163,-0.156,-0.181,-0.144
'0:00.454',-0.070,-0.125,-0.055,0.098,-0.007,-0.090,0.025,-0.153,-0.159,-0.163,-0.175,-0.141
'0:00.455',-0.072,-0.128,-0.056,0.100,-0.008,-0.093,0.025,-0.144,-0.156,-0.163,-0.175,-0.144
'0:00.456',-0.072,-0.133,-0.061,0.102,-0.006,-0.098,0.028,-0.138,-0.153,-0.163,-0.175,-0.147
'0:00.457',-0.075,-0.138,-0.062,0.106,-0.006,-0.100,0.037,-0.131,-0.150,-0.169,-0.188,-0.150
'0:00.458',-0.076,-0.149,-0.072,0.112,-0.002,-0.111,0.050,-0.119,-0.150,-0.178,-0.197,-0.169
'0:00.459',-0.081,-0.156,-0.075,0.119,-0.003,-0.116,0.062,-0.106,-0.156,-0.188,-0.213,-0.181
'0:00.460',-0.081,-0.170,-0.089,0.126,0.004,-0.129,0.078,-0.097,-0.156,-0.197,-0.222,-0.191
'0:00.461',-0.084,-0.178,-0.094,0.131,0.004,-0.136,0.100,-0.088,-0.156,-0.200,-0.231,-0.206
'0:00.462',-0.087,-0.186,-0.099,0.137,0.006,-0.143,0.122,-0.075,-0.156,-0.203,-0.241,-0.213
'0:00.463',-0.087,-0.184,-0.097,0.136,0.004,-0.141,0.137,-0.063,-0.156,-0.219,-0.250,-0.219
'0:00.464',-0.089,-0.186,-0.097,0.137,0.004,-0.141,0.153,-0.038,-0.159,-0.228,-0.253,-0.231
'0:00.465',-0.091,-0.187,-0.097,0.139,0.003,-0.143,0.169,-0.019,-0.156,-0.231,-0.256,-0.231
'0:00.466',-0.083,-0.181,-0.098,0.133,0.008,-0.140,0.175,-0.013,-0.156,-0.234,-0.256,-0.238
'0:00.467',-0.075,-0.178,-0.103,0.127,0.014,-0.141,0.181,0.000,-0.150,-0.238,-0.256,-0.238
'0:00.468',-0.061,-0.170,-0.109,0.116,0.024,-0.139,0.178,0.013,-0.144,-0.231,-0.259,-0.244
'0:00.469',-0.050,-0.159,-0.109,0.105,0.029,-0.134,0.181,0.031,-0.119,-0.219,-0.256,-0.238
'0:00.470',-0.042,-0.138,-0.096,0.090,0.027,-0.117,0.181,0.056,-0.094,-0.197,-0.238,-0.225
'0:00.471',-0.041,-0.109,-0.069,0.075,0.014,-0.089,0.181,0.075,-0.069,-0.175,-0.213,-0.206
'0:00.472',-0.041,-0.075,-0.034,0.058,-0.003,-0.055,0.184,0.094,-0.041,-0.137,-0.191,-0.178
'0:00.473',-0.041,-0.031,0.009,0.036,-0.025,-0.011,0.181,0.106,-0.019,-0.106,-0.156,-0.156
'0:00.474',-0.039,0.014,0.054,0.013,-0.047,0.034,0.181,0.116,0.013,-0.066,-0.119,-0.122
'0:00.475',-0.031,0.062,0.094,-0.016,-0.062,0.078,0.175,0.131,0.050,-0.019,-0.075,-0.081
'0:00.476',-0.017,0.120,0.138,-0.051,-0.077,0.129,0.169,0.150,0.088,0.034,-0.028,-0.041
'0:00.477',-0.003,0.178,0.181,-0.088,-0.092,0.179,0.162,0.175,0.131,0.094,0.025,0.012
'0:00.478',0.016,0.231,0.216,-0.123,-0.100,0.223,0.144,0.203,0.184,0.156,0.075,0.056
'0:00.479',0.034,0.284,0.250,-0.159,-0.108,0.267,0.119,0.231,0.238,0.212,0.137,0.106
'0:00.480',0.053,0.343,0.289,-0.197,-0.118,0.316,0.084,0.253,0.297,0.278,0.203,0.159
'0:00.481',0.069,0.406,0.338,-0.237,-0.134,0.372,0.062,0.281,0.356,0.356,0.275,0.219
'0:00.482',0.091,0.475,0.384,-0.282,-0.147,0.429,0.041,0.322,0.428,0.438,0.359,0.291
'0:00.483',0.116,0.547,0.431,-0.331,-0.158,0.489,0.019,0.369,0.500,0.525,0.444,0.356
'0:00.484',0.136,0.617,0.481,-0.377,-0.172,0.549,-0.003,0.416,0.594,0.631,0.531,0.431
'0:00.485',0.156,0.694,0.538,-0.425,-0.191,0.616,-0.031,0.469,0.694,0.738,0.625,0.512
'0:00.486',0.175,0.774,0.599,-0.474,-0.212,0.686,-0.063,0.534,0.803,0.850,0.734,0.600
'0:00.487',0.191,0.859,0.669,-0.525,-0.239,0.764,-0.094,0.594,0.906,0.981,0.856,0.700
'0:00.488',0.214,0.956,0.742,-0.585,-0.264,0.849,-0.141,0.659,1.022,1.109,0.978,0.797
'0:00.489',0.231,1.044,0.813,-0.637,-0.291,0.928,-0.175,0.712,1.144,1.238,1.100,0.887
'0:00.490',0.252,1.138,0.886,-0.694,-0.317,1.011,-0.213,0.750,1.253,1.372,1.219,0.984
'0:00.491',0.269,1.228,0.959,-0.748,-0.346,1.094,-0.238,0.769,1.356,1.500,1.325,1.069
'0:00.492',0.288,1.317,1.029,-0.802,-0.371,1.173,-0.275,0.791,1.456,1.622,1.419,1.147
'0:00.493',0.300,1.378,1.078,-0.839,-0.389,1.228,-0.313,0.806,1.544,1.731,1.506,1.212
'0:00.494',0.308,1.420,1.113,-0.864,-0.402,1.266,-0.341,0.819,1.631,1.825,1.591,1.262
'0:00.495',0.306,1.453,1.147,-0.879,-0.421,1.300,-0.356,0.825,1.700,1.912,1.650,1.300
'0:00.496',0.301,1.480,1.179,-0.891,-0.439,1.329,-0.369,0.828,1.759,1.987,1.706,1.334
'0:00.497',0.294,1.509,1.216,-0.901,-0.461,1.362,-0.381,0.825,1.812,2.056,1.744,1.362
'0:00.498',0.288,1.553,1.266,-0.920,-0.489,1.409,-0.403,0.809,1.862,2.119,1.791,1.391
'0:00.499',0.272,1.587,1.316,-0.929,-0.522,1.451,-0.419,0.794,1.906,2.181,1.831,1.412
'0:00.500',0.256,1.600,1.344,-0.928,-0.544,1.472,-0.422,0.781,1.947,2.212,1.847,1.416
'0:00.501',0.238,1.556,1.319,-0.897,-0.541,1.437,-0.419,0.769,1.975,2.231,1.837,1.387
'0:00.502',0.220,1.464,1.244,-0.842,-0.512,1.354,-0.413,0.769,2.003,2.237,1.806,1.337
'0:00.503',0.212,1.375,1.163,-0.794,-0.475,1.269,-0.425,0.744,2.012,2.237,1.775,1.287
'0:00.504',0.203,1.275,1.072,-0.739,-0.434,1.173,-0.441,0.700,2.009,2.231,1.725,1.231
'0:00.505',0.197,1.172,0.975,-0.684,-0.389,1.073,-0.463,0.631,1.981,2.200,1.669,1.169
'0:00.506',0.192,1.072,0.879,-0.632,-0.344,0.976,-0.484,0.550,1.944,2.162,1.606,1.106
'0:00.507',0.184,0.991,0.806,-0.587,-0.311,0.898,-0.513,0.475,1.906,2.119,1.550,1.050
'0:00.508',0.174,0.928,0.754,-0.551,-0.291,0.841,-0.534,0.416,1.872,2.091,1.494,1.003
'0:00.509',0.163,0.866,0.703,-0.514,-0.271,0.784,-0.544,0.356,1.831,2.044,1.438,0.956
'0:00.510',0.147,0.812,0.666,-0.479,-0.259,0.739,-0.559,0.288,1.750,1.956,1.359,0.900
'0:00.511',0.128,0.750,0.622,-0.439,-0.247,0.686,-0.556,0.200,1.644,1.838,1.256,0.825
'0:00.512',0.104,0.682,0.578,-0.393,-0.237,0.630,-0.556,0.113,1.519,1.691,1.131,0.741
'0:00.513',0.088,0.606,0.519,-0.347,-0.216,0.562,-0.550,0.025,1.381,1.538,0.994,0.644
'0:00.514',0.079,0.504,0.425,-0.292,-0.173,0.464,-0.531,-0.022,1.250,1.369,0.853,0.534
'0:00.515',0.072,0.394,0.322,-0.232,-0.125,0.357,-0.506,-0.063,1.112,1.187,0.713,0.425
'0:00.516',0.059,0.275,0.216,-0.167,-0.078,0.245,-0.478,-0.100,0.975,0.997,0.566,0.322
'0:00.517',0.044,0.175,0.131,-0.109,-0.044,0.153,-0.450,-0.150,0.825,0.800,0.425,0.231
'0:00.518',0.023,0.096,0.073,-0.059,-0.025,0.084,-0.425,-0.209,0.663,0.616,0.300,0.156
'0:00.519',0.006,0.031,0.025,-0.019,-0.009,0.028,-0.400,-0.281,0.494,0.438,0.181,0.087
'0:00.520',-0.025,-0.028,-0.003,0.027,-0.011,-0.016,-0.366,-0.353,0.306,0.269,0.075,0.028
'0:00.521',-0.050,-0.078,-0.028,0.064,-0.011,-0.053,-0.338,-0.444,0.119,0.119,-0.019,-0.031
'0:00.522',-0.064,-0.119,-0.055,0.091,-0.004,-0.087,-0.328,-0.537,-0.063,-0.016,-0.112,-0.078
'0:00.523',-0.069,-0.156,-0.087,0.112,0.009,-0.122,-0.319,-0.600,-0.200,-0.106,-0.175,-0.119
'0:00.524',-0.072,-0.187,-0.116,0.130,0.022,-0.152,-0.322,-0.631,-0.275,-0.159,-0.213,-0.144
'0:00.525',-0.072,-0.209,-0.137,0.141,0.033,-0.174,-0.319,-0.631,-0.313,-0.188,-0.225,-0.169
'0:00.526',-0.072,-0.212,-0.141,0.143,0.034,-0.177,-0.316,-0.606,-0.322,-0.197,-0.234,-0.169
'0:00.527',-0.072,-0.216,-0.144,0.144,0.036,-0.180,-0.306,-0.581,-0.319,-0.188,-0.231,-0.169
'0:00.528',-0.069,-0.211,-0.142,0.140,0.037,-0.177,-0.291,-0.553,-0.306,-0.191,-0.228,-0.166
'0:00.529',-0.066,-0.203,-0.137,0.134,0.036,-0.171,-0.275,-0.519,-0.300,-0.188,-0.225,-0.169
'0:00.530',-0.066,-0.192,-0.126,0.129,0.030,-0.159,-0.266,-0.491,-0.284,-0.175,-0.222,-0.169
'0:00.531',-0.062,-0.181,-0.119,0.122,0.028,-0.150,-0.244,-0.462,-0.263,-0.169,-0.213,-0.169
'0:00.532',-0.062,-0.173,-0.111,0.118,0.024,-0.142,-0.225,-0.428,-0.256,-0.166,-0.203,-0.169
'0:00.533',-0.056,-0.169,-0.112,0.112,0.028,-0.141,-0.200,-0.394,-0.244,-0.156,-0.194,-0.163
'0:00.534',-0.055,-0.159,-0.104,0.108,0.024,-0.132,-0.172,-0.363,-0.222,-0.153,-0.188,-0.156
'0:00.535',-0.050,-0.159,-0.109,0.105,0.029,-0.134,-0.150,-0.331,-0.213,-0.150,-0.188,-0.156
'0:00.536',-0.053,-0.154,-0.101,0.104,0.024,-0.128,-0.128,-0.294,-0.194,-0.153,-0.184,-0.144
'0:00.537',-0.053,-0.150,-0.097,0.102,0.022,-0.124,-0.106,-0.263,-0.181,-0.150,-0.181,-0.144
'0:00.538',-0.048,-0.144,-0.096,0.096,0.024,-0.120,-0.097,-0.244,-0.169,-0.150,-0.175,-0.141
'0:00.539',-0.050,-0.134,-0.084,0.092,0.017,-0.109,-0.088,-0.219,-0.150,-0.144,-0.169,-0.138
'0:00.540',-0.047,-0.122,-0.075,0.084,0.014,-0.099,-0.069,-0.197,-0.144,-0.128,-0.159,-0.131
'0:00.541',-0.047,-0.109,-0.062,0.078,0.008,-0.086,-0.056,-0.181,-0.138,-0.125,-0.156,-0.131
'0:00.542',-0.048,-0.106,-0.058,0.077,0.005,-0.083,-0.044,-0.163,-0.131,-0.122,-0.156,-0.125
'0:00.543',-0.050,-0.106,-0.056,0.078,0.003,-0.081,-0.038,-0.150,-0.125,-0.119,-0.150,-0.119
'0:00.544',-0.052,-0.099,-0.047,0.076,-0.002,-0.073,-0.031,-0.144,-0.122,-0.119,-0.147,-0.116
'0:00.545',-0.050,-0.094,-0.044,0.072,-0.003,-0.069,-0.025,-0.131,-0.119,-0.119,-0.137,-0.119
'0:00.546',-0.050,-0.087,-0.037,0.069,-0.006,-0.063,-0.019,-0.122,-0.119,-0.122,-0.137,-0.119
'0:00.547',-0.044,-0.081,-0.037,0.063,-0.003,-0.059,-0.019,-0.113,-0.119,-0.119,-0.137,-0.113
'0:00.548',-0.047,-0.081,-0.034,0.064,-0.006,-0.058,-0.016,-0.116,-0.113,-0.116,-0.137,-0.119
'0:00.549',-0.047,-0.078,-0.031,0.063,-0.008,-0.055,-0.019,-0.113,-0.113,-0.113,-0.131,-0.113
'0:00.550',-0.050,-0.078,-0.028,0.064,-0.011,-0.053,-0.006,-0.116,-0.113,-0.113,-0.131,-0.116
'0:00.551',-0.050,-0.081,-0.031,0.066,-0.009,-0.056,0.000,-0.113,-0.113,-0.113,-0.131,-0.119
'0:00.552',-0.053,-0.078,-0.025,0.066,-0.014,-0.052,0.000,-0.106,-0.103,-0.109,-0.137,-0.116
'0:00.553',-0.053,-0.078,-0.025,0.066,-0.014,-0.052,0.006,-0.100,-0.106,-0.113,-0.137,-0.119
'0:00.554',-0.052,-0.072,-0.020,0.062,-0.016,-0.046,0.003,-0.097,-0.106,-0.116,-0.137,-0.119
'0:00.555',-0.050,-0.072,-0.022,0.061,-0.014,-0.047,0.006,-0.100,-0.106,-0.119,-0.137,-0.119
'0:00.556',-0.047,-0.073,-0.026,0.060,-0.011,-0.050,0.006,-0.091,-0.106,-0.119,-0.134,-0.119
'0:00.557',-0.047,-0.078,-0.031,0.063,-0.008,-0.055,0.006,-0.088,-0.106,-0.119,-0.137,-0.119
'0:00.558',-0.051,-0.072,-0.021,0.062,-0.016,-0.046,0.016,-0.081,-0.106,-0.122,-0.137,-0.119
'0:00.559',-0.056,-0.078,-0.022,0.067,-0.017,-0.050,0.019,-0.075,-0.106,-0.125,-0.131,-0.119
'0:00.560',-0.055,-0.078,-0.023,0.067,-0.016,-0.051,0.022,-0.075,-0.109,-0.122,-0.137,-0.119
'0:00.561',-0.053,-0.078,-0.025,0.066,-0.014,-0.052,0.025,-0.075,-0.113,-0.119,-0.137,-0.119
'0:00.562',-0.046,-0.075,-0.029,0.061,-0.008,-0.053,0.025,-0.075,-0.109,-0.128,-0.137,-0.119
'0:00.563',-0.037,-0.072,-0.034,0.055,-0.002,-0.053,0.025,-0.075,-0.106,-0.125,-0.137,-0.119
'0:00.564',-0.041,-0.072,-0.031,0.056,-0.005,-0.052,0.028,-0.075,-0.116,-0.131,-0.141,-0.119
'0:00.565',-0.047,-0.072,-0.025,0.059,-0.011,-0.049,0.031,-0.075,-0.113,-0.125,-0.137,-0.119
'0:00.566',-0.050,-0.073,-0.023,0.062,-0.014,-0.048,0.031,-0.078,-0.113,-0.122,-0.144,-0.116
'0:00.567',-0.050,-0.075,-0.025,0.063,-0.012,-0.050,0.031,-0.075,-0.113,-0.119,-0.137,-0.113
'0:00.568',-0.050,-0.072,-0.022,0.061,-0.014,-0.047,0.028,-0.075,-0.113,-0.116,-0.137,-0.113
'0:00.569',-0.050,-0.072,-0.022,0.061,-0.014,-0.047,0.025,-0.075,-0.113,-0.113,-0.137,-0.113
'0:00.570',-0.053,-0.070,-0.017,0.062,-0.018,-0.044,0.025,-0.072,-0.109,-0.116,-0.134,-0.113
'0:00.571',-0.056,-0.072,-0.016,0.064,-0.021,-0.044,0.025,-0.069,-0.106,-0.119,-0.137,-0.113
'0:00.572',-0.054,-0.070,-0.016,0.063,-0.019,-0.043,0.022,-0.069,-0.103,-0.116,-0.137,-0.113
'0:00.573',-0.056,-0.072,-0.016,0.064,-0.021,-0.044,0.025,-0.063,-0.094,-0.113,-0.131,-0.113
'0:00.574',-0.056,-0.071,-0.014,0.064,-0.021,-0.043,0.025,-0.063,-0.097,-0.113,-0.131,-0.113
'0:00.575',-0.059,-0.069,-0.009,0.064,-0.025,-0.039,0.025,-0.056,-0.094,-0.113,-0.131,-0.113
'0:00.576',-0.055,-0.070,-0.015,0.063,-0.020,-0.043,0.031,-0.053,-0.091,-0.113,-0.134,-0.113
'0:00.577',-0.053,-0.072,-0.019,0.063,-0.017,-0.046,0.037,-0.050,-0.094,-0.113,-0.131,-0.113
'0:00.578',-0.055,-0.072,-0.017,0.064,-0.019,-0.044,0.034,-0.050,-0.094,-0.113,-0.128,-0.116
'0:00.579',-0.053,-0.072,-0.019,0.063,-0.017,-0.046,0.031,-0.044,-0.094,-0.113,-0.131,-0.119
'0:00.580',-0.050,-0.070,-0.020,0.060,-0.015,-0.045,0.031,-0.044,-0.097,-0.113,-0.131,-0.113
'0:00.581',-0.053,-0.072,-0.019,0.063,-0.017,-0.046,0.031,-0.044,-0.094,-0.106,-0.131,-0.113
'0:00.582',-0.053,-0.072,-0.019,0.063,-0.017,-0.046,0.037,-0.044,-0.094,-0.103,-0.131,-0.113
'0:00.583',-0.056,-0.072,-0.016,0.064,-0.021,-0.044,0.037,-0.038,-0.094,-0.100,-0.125,-0.106
'0:00.584',-0.054,-0.069,-0.014,0.062,-0.020,-0.042,0.037,-0.038,-0.097,-0.097,-0.128,-0.103
'0:00.585',-0.056,-0.069,-0.012,0.063,-0.022,-0.041,0.037,-0.038,-0.100,-0.100,-0.131,-0.106
'0:00.586',-0.056,-0.070,-0.014,0.063,-0.021,-0.042,0.041,-0.038,-0.094,-0.100,-0.131,-0.106
'0:00.587',-0.053,-0.069,-0.016,0.061,-0.019,-0.043,0.037,-0.038,-0.094,-0.100,-0.131,-0.106
'0:00.588',-0.051,-0.069,-0.017,0.060,-0.017,-0.043,0.034,-0.038,-0.088,-0.097,-0.128,-0.103
'0:00.589',-0.050,-0.069,-0.019,0.059,-0.016,-0.044,0.037,-0.031,-0.081,-0.094,-0.125,-0.100
'0:00.590',-0.052,-0.064,-0.012,0.058,-0.020,-0.039,0.031,-0.034,-0.081,-0.097,-0.125,-0.100
'0:00.591',-0.047,-0.059,-0.012,0.053,-0.017,-0.036,0.031,-0.031,-0.088,-0.100,-0.119,-0.106
'0:00.592',-0.045,-0.059,-0.014,0.053,-0.016,-0.037,0.025,-0.031,-0.084,-0.094,-0.122,-0.106
'0:00.593',-0.047,-0.056,-0.009,0.052,-0.019,-0.033,0.025,-0.025,-0.081,-0.094,-0.125,-0.106
'0:00.594',-0.045,-0.061,-0.016,0.053,-0.015,-0.038,0.025,-0.028,-0.081,-0.097,-0.122,-0.103
'0:00.595',-0.047,-0.062,-0.016,0.055,-0.016,-0.039,0.025,-0.025,-0.075,-0.100,-0.119,-0.100
'0:00.596',-0.044,-0.061,-0.017,0.053,-0.013,-0.039,0.031,-0.022,-0.075,-0.100,-0.116,-0.100
'0:00.597',-0.044,-0.059,-0.016,0.052,-0.014,-0.038,0.025,-0.019,-0.075,-0.100,-0.119,-0.100
'0:00.598',-0.039,-0.055,-0.016,0.048,-0.012,-0.036,0.025,-0.019,-0.072,-0.094,-0.119,-0.100
'0:00.599',-0.037,-0.056,-0.019,0.047,-0.009,-0.038,0.025,-0.019,-0.075,-0.094,-0.119,-0.100
'0:00.600',-0.033,-0.053,-0.020,0.043,-0.007,-0.037,0.025,-0.019,-0.072,-0.091,-0.116,-0.103
'0:00.601',-0.031,-0.053,-0.022,0.042,-0.005,-0.038,0.025,-0.013,-0.069,-0.088,-0.112,-0.100
'0:00.602',-0.030,-0.050,-0.020,0.040,-0.005,-0.035,0.025,-0.009,-0.066,-0.088,-0.112,-0.100
'0:00.603',-0.031,-0.050,-0.019,0.041,-0.006,-0.034,0.025,-0.006,-0.063,-0.088,-0.112,-0.100
'0:00.604',-0.029,-0.051,-0.022,0.041,-0.004,-0.037,0.028,-0.009,-0.056,-0.084,-0.112,-0.097
'0:00.605',-0.031,-0.053,-0.022,0.042,-0.005,-0.038,0.031,-0.006,-0.056,-0.081,-0.112,-0.094
'0:00.606',-0.034,-0.056,-0.022,0.046,-0.006,-0.039,0.031,-0.006,-0.059,-0.078,-0.106,-0.094
'0:00.607',-0.041,-0.056,-0.016,0.049,-0.012,-0.036,0.031,0.000,-0.056,-0.081,-0.106,-0.094
'0:00.608',-0.039,-0.057,-0.019,0.048,-0.010,-0.038,0.041,0.003,-0.053,-0.081,-0.106,-0.094
'0:00.609',-0.041,-0.059,-0.019,0.050,-0.011,-0.039,0.037,0.006,-0.050,-0.081,-0.106,-0.094
'0:00.610',-0.037,-0.056,-0.019,0.047,-0.009,-0.038,0.031,0.013,-0.050,-0.075,-0.109,-0.094
'0:00.611',-0.034,-0.053,-0.019,0.044,-0.008,-0.036,0.031,0.013,-0.044,-0.075,-0.112,-0.094
'0:00.612',-0.036,-0.053,-0.017,0.044,-0.009,-0.036,0.031,0.009,-0.044,-0.075,-0.106,-0.094
'0:00.613',-0.034,-0.050,-0.016,0.042,-0.009,-0.033,0.031,0.013,-0.044,-0.075,-0.106,-0.094
'0:00.614',-0.036,-0.050,-0.014,0.043,-0.011,-0.033,0.028,0.016,-0.034,-0.072,-0.100,-0.094
'0:00.615',-0.037,-0.050,-0.012,0.044,-0.012,-0.031,0.031,0.019,-0.031,-0.069,-0.094,-0.094
'0:00.616',-0.033,-0.048,-0.015,0.041,-0.009,-0.032,0.034,0.019,-0.031,-0.069,-0.094,-0.088
'0:00.617',-0.031,-0.050,-0.019,0.041,-0.006,-0.034,0.037,0.025,-0.031,-0.069,-0.094,-0.088
'0:00.618',-0.027,-0.051,-0.024,0.039,-0.001,-0.038,0.034,0.025,-0.034,-0.062,-0.097,-0.088
'0:00.619',-0.028,-0.050,-0.022,0.039,-0.003,-0.036,0.037,0.031,-0.031,-0.062,-0.094,-0.088
'0:00.620',-0.025,-0.047,-0.022,0.036,-0.002,-0.034,0.037,0.028,-0.031,-0.066,-0.097,-0.091
'0:00.621',-0.022,-0.044,-0.022,0.033,0.000,-0.033,0.031,0.025,-0.031,-0.062,-0.100,-0.094
'0:00.622',-0.020,-0.042,-0.022,0.031,0.001,-0.032,0.028,0.028,-0.031,-0.059,-0.097,-0.091
'0:00.623',-0.019,-0.041,-0.022,0.030,0.001,-0.031,0.025,0.025,-0.025,-0.056,-0.094,-0.088
'0:00.624',-0.025,-0.042,-0.017,0.034,-0.004,-0.029,0.025,0.025,-0.025,-0.059,-0.084,-0.084
'0:00.625',-0.028,-0.044,-0.016,0.036,-0.006,-0.030,0.025,0.031,-0.019,-0.062,-0.081,-0.081
'0:00.626',-0.027,-0.042,-0.016,0.035,-0.006,-0.029,0.025,0.034,-0.019,-0.056,-0.081,-0.078
'0:00.627',-0.022,-0.038,-0.016,0.030,-0.003,-0.027,0.025,0.038,-0.019,-0.056,-0.081,-0.081
'0:00.628',-0.017,-0.039,-0.022,0.029,0.002,-0.031,0.025,0.044,-0.013,-0.050,-0.078,-0.081
'0:00.629',-0.016,-0.038,-0.022,0.027,0.003,-0.030,0.025,0.050,-0.013,-0.050,-0.081,-0.081
'0:00.630',-0.011,-0.039,-0.027,0.025,0.008,-0.033,0.025,0.053,-0.013,-0.047,-0.081,-0.081
'0:00.631',-0.012,-0.038,-0.025,0.025,0.006,-0.031,0.025,0.056,-0.013,-0.044,-0.081,-0.075
'0:00.632',-0.017,-0.038,-0.021,0.028,0.002,-0.029,0.025,0.063,-0.009,-0.038,-0.075,-0.075
'0:00.633',-0.016,-0.038,-0.022,0.027,0.003,-0.030,0.025,0.063,-0.006,-0.038,-0.075,-0.075
'0:00.634',-0.016,-0.038,-0.022,0.027,0.003,-0.030,0.034,0.069,-0.003,-0.031,-0.069,-0.078
'0:00.635',-0.012,-0.038,-0.025,0.025,0.006,-0.031,0.031,0.069,0.000,-0.031,-0.069,-0.081
'0:00.636',-0.008,-0.036,-0.027,0.022,0.009,-0.032,0.022,0.075,0.006,-0.034,-0.066,-0.081
'0:00.637',-0.006,-0.034,-0.028,0.021,0.011,-0.031,0.019,0.075,0.006,-0.038,-0.063,-0.081
'0:00.638',-0.011,-0.031,-0.021,0.021,0.005,-0.026,0.025,0.081,0.006,-0.031,-0.066,-0.075
'0:00.639',-0.009,-0.031,-0.022,0.021,0.006,-0.027,0.025,0.081,0.013,-0.031,-0.063,-0.075
'0:00.640',-0.006,-0.032,-0.026,0.019,0.010,-0.029,0.028,0.088,0.022,-0.031,-0.059,-0.072
'0:00.641',-0.003,-0.031,-0.028,0.018,0.013,-0.030,0.025,0.094,0.025,-0.025,-0.056,-0.069
'0:00.642',-0.001,-0.027,-0.026,0.014,0.012,-0.026,0.019,0.091,0.022,-0.019,-0.053,-0.069
'0:00.643',0.000,-0.019,-0.019,0.009,0.009,-0.019,0.019,0.094,0.025,-0.019,-0.056,-0.069
'0:00.644',0.000,-0.019,-0.019,0.009,0.009,-0.019,0.022,0.100,0.025,-0.013,-0.050,-0.066
'0:00.645',0.000,-0.019,-0.019,0.009,0.009,-0.019,0.019,0.100,0.025,-0.019,-0.050,-0.069
'0:00.646',0.000,-0.020,-0.020,0.010,0.010,-0.020,0.022,0.100,0.031,-0.009,-0.050,-0.069
'0:00.647',0.000,-0.022,-0.022,0.011,0.011,-0.022,0.031,0.106,0.038,-0.006,-0.044,-0.069
'0:00.648',0.000,-0.022,-0.022,0.011,0.011,-0.022,0.031,0.116,0.041,-0.006,-0.044,-0.066
'0:00.649',0.000,-0.025,-0.025,0.013,0.013,-0.025,0.031,0.119,0.044,0.000,-0.038,-0.056
'0:00.650',-0.003,-0.025,-0.022,0.014,0.009,-0.024,0.028,0.122,0.047,0.006,-0.034,-0.056
'0:00.651',0.000,-0.022,-0.022,0.011,0.011,-0.022,0.031,0.119,0.050,0.006,-0.031,-0.050
'0:00.652',0.006,-0.017,-0.024,0.006,0.015,-0.021,0.031,0.125,0.050,0.009,-0.022,-0.053
'0:00.653',0.016,-0.013,-0.028,-0.001,0.022,-0.021,0.031,0.131,0.056,0.019,-0.019,-0.044
'0:00.654',0.017,-0.013,-0.029,-0.002,0.023,-0.021,0.031,0.138,0.063,0.019,-0.019,-0.044
'0:00.655',0.019,-0.009,-0.028,-0.004,0.023,-0.019,0.031,0.138,0.063,0.019,-0.013,-0.044
'0:00.656',0.016,-0.011,-0.026,-0.003,0.021,-0.019,0.031,0.144,0.066,0.019,-0.016,-0.041
'0:00.657',0.012,-0.009,-0.022,-0.001,0.017,-0.016,0.031,0.150,0.069,0.019,-0.013,-0.044
'0:00.658',0.012,-0.013,-0.025,0.000,0.019,-0.019,0.028,0.156,0.072,0.025,-0.013,-0.038
'0:00.659',0.009,-0.013,-0.022,0.002,0.016,-0.018,0.025,0.163,0.081,0.025,-0.006,-0.038
'0:00.660',0.009,-0.009,-0.019,0.000,0.014,-0.014,0.028,0.166,0.084,0.037,0.000,-0.041
'0:00.661',0.009,-0.006,-0.016,-0.001,0.013,-0.011,0.031,0.175,0.094,0.044,0.000,-0.038
'0:00.662',0.012,-0.003,-0.016,-0.004,0.014,-0.009,0.031,0.181,0.100,0.044,0.003,-0.038
'0:00.663',0.019,0.003,-0.016,-0.011,0.017,-0.006,0.031,0.188,0.106,0.044,0.000,-0.038
'0:00.664',0.022,0.005,-0.017,-0.013,0.019,-0.006,0.031,0.191,0.103,0.044,0.006,-0.031
'0:00.665',0.022,0.006,-0.016,-0.014,0.019,-0.005,0.031,0.194,0.106,0.050,0.006,-0.031
'0:00.666',0.021,0.005,-0.016,-0.012,0.018,-0.006,0.031,0.203,0.116,0.059,0.016,-0.031
'0:00.667',0.019,0.006,-0.012,-0.012,0.016,-0.003,0.031,0.206,0.119,0.062,0.019,-0.025
'0:00.668',0.016,0.008,-0.008,-0.011,0.012,-0.001,0.034,0.213,0.119,0.069,0.022,-0.025
'0:00.669',0.019,0.013,-0.006,-0.016,0.013,0.003,0.031,0.219,0.119,0.069,0.025,-0.019
'0:00.670',0.018,0.014,-0.003,-0.016,0.010,0.006,0.028,0.225,0.128,0.072,0.025,-0.013
'0:00.671',0.019,0.019,0.000,-0.019,0.009,0.009,0.025,0.231,0.138,0.075,0.031,-0.006
'0:00.672',0.022,0.023,0.001,-0.022,0.010,0.012,0.031,0.241,0.144,0.084,0.034,-0.006
'0:00.673',0.025,0.025,0.000,-0.025,0.013,0.012,0.031,0.244,0.150,0.088,0.038,-0.006
'0:00.674',0.028,0.028,0.000,-0.028,0.014,0.014,0.025,0.253,0.156,0.094,0.047,-0.003
'0:00.675',0.034,0.038,0.003,-0.036,0.016,0.020,0.025,0.263,0.163,0.100,0.050,0.000
'0:00.676',0.031,0.033,0.002,-0.032,0.014,0.017,0.028,0.269,0.172,0.106,0.056,0.009
'0:00.677',0.031,0.038,0.006,-0.034,0.013,0.022,0.031,0.281,0.188,0.112,0.063,0.012
'0:00.678',0.034,0.039,0.005,-0.037,0.014,0.022,0.031,0.288,0.197,0.125,0.075,0.016
'0:00.679',0.034,0.041,0.006,-0.038,0.014,0.023,0.031,0.300,0.206,0.131,0.081,0.019
'0:00.680',0.038,0.042,0.005,-0.040,0.016,0.024,0.028,0.306,0.209,0.134,0.084,0.022
'0:00.681',0.044,0.044,0.000,-0.044,0.022,0.022,0.019,0.313,0.213,0.137,0.087,0.019
'0:00.682',0.048,0.053,0.005,-0.051,0.021,0.029,0.019,0.316,0.219,0.144,0.091,0.019
'0:00.683',0.059,0.059,0.000,-0.059,0.029,0.029,0.019,0.325,0.225,0.150,0.094,0.025
'0:00.684',0.059,0.062,0.003,-0.061,0.028,0.033,0.022,0.334,0.234,0.156,0.103,0.028
'0:00.685',0.063,0.066,0.003,-0.064,0.029,0.034,0.019,0.344,0.244,0.163,0.106,0.037
'0:00.686',0.063,0.066,0.003,-0.064,0.029,0.034,0.016,0.353,0.250,0.169,0.116,0.037
'0:00.687',0.063,0.069,0.006,-0.066,0.028,0.037,0.012,0.369,0.263,0.175,0.125,0.044
'0:00.688',0.072,0.075,0.003,-0.073,0.034,0.039,0.009,0.372,0.275,0.178,0.128,0.050
'0:00.689',0.078,0.081,0.003,-0.079,0.038,0.042,0.006,0.381,0.281,0.187,0.131,0.050
'0:00.690',0.074,0.084,0.011,-0.079,0.031,0.047,0.006,0.384,0.288,0.197,0.144,0.056
'0:00.691',0.078,0.087,0.009,-0.082,0.034,0.048,0.006,0.394,0.294,0.206,0.150,0.062
'0:00.692',0.075,0.094,0.019,-0.084,0.028,0.056,0.006,0.409,0.306,0.212,0.150,0.066
'0:00.693',0.075,0.097,0.022,-0.086,0.026,0.059,0.000,0.419,0.319,0.219,0.162,0.075
'0:00.694',0.083,0.101,0.019,-0.092,0.032,0.060,0.006,0.431,0.328,0.231,0.166,0.078
'0:00.695',0.091,0.109,0.019,-0.100,0.036,0.064,0.000,0.438,0.338,0.238,0.169,0.081
'0:00.696',0.098,0.111,0.013,-0.104,0.043,0.062,0.000,0.453,0.353,0.238,0.178,0.081
'0:00.697',0.100,0.116,0.016,-0.107,0.042,0.066,0.000,0.463,0.363,0.250,0.188,0.087
'0:00.698',0.103,0.120,0.017,-0.111,0.043,0.068,0.000,0.475,0.369,0.259,0.197,0.097
'0:00.699',0.103,0.125,0.022,-0.114,0.041,0.073,-0.006,0.487,0.381,0.269,0.206,0.100
'0:00.700',0.105,0.127,0.022,-0.116,0.041,0.074,0.000,0.497,0.394,0.281,0.213,0.106
'0:00.701',0.106,0.131,0.025,-0.119,0.041,0.078,-0.006,0.512,0.400,0.287,0.219,0.112
'0:00.702',0.111,0.134,0.024,-0.123,0.043,0.079,-0.006,0.516,0.409,0.291,0.225,0.119
'0:00.703',0.116,0.141,0.025,-0.128,0.045,0.082,-0.006,0.525,0.419,0.300,0.231,0.119
'0:00.704',0.121,0.144,0.023,-0.132,0.049,0.083,-0.003,0.534,0.422,0.306,0.241,0.125
'0:00.705',0.122,0.150,0.028,-0.136,0.047,0.089,-0.006,0.550,0.431,0.313,0.244,0.131
'0:00.706',0.124,0.155,0.031,-0.139,0.046,0.093,-0.006,0.556,0.438,0.319,0.250,0.128
'0:00.707',0.125,0.156,0.031,-0.141,0.047,0.094,-0.006,0.569,0.450,0.325,0.256,0.131
'0:00.708',0.126,0.163,0.036,-0.144,0.045,0.099,-0.009,0.572,0.463,0.334,0.256,0.141
'0:00.709',0.128,0.169,0.041,-0.148,0.044,0.104,-0.013,0.581,0.475,0.344,0.269,0.150
'0:00.710',0.130,0.174,0.044,-0.152,0.043,0.109,-0.009,0.591,0.491,0.359,0.278,0.150
'0:00.711',0.134,0.172,0.037,-0.153,0.048,0.104,-0.013,0.600,0.500,0.369,0.287,0.156
'0:00.712',0.141,0.175,0.034,-0.158,0.053,0.104,-0.013,0.616,0.506,0.366,0.287,0.162
'0:00.713',0.141,0.181,0.041,-0.161,0.050,0.111,-0.013,0.625,0.513,0.375,0.300,0.169
'0:00.714',0.145,0.184,0.039,-0.164,0.053,0.112,-0.009,0.634,0.525,0.381,0.309,0.169
'0:00.715',0.150,0.191,0.041,-0.170,0.054,0.116,-0.006,0.644,0.531,0.388,0.319,0.175
'0:00.716',0.150,0.194,0.044,-0.172,0.053,0.119,-0.019,0.650,0.538,0.394,0.316,0.175
'0:00.717',0.156,0.194,0.037,-0.175,0.059,0.116,-0.025,0.650,0.544,0.400,0.325,0.181
'0:00.718',0.158,0.203,0.045,-0.181,0.056,0.124,-0.019,0.666,0.553,0.412,0.328,0.187
'0:00.719',0.156,0.212,0.056,-0.184,0.050,0.134,-0.025,0.669,0.569,0.425,0.337,0.187
'0:00.720',0.166,0.214,0.049,-0.190,0.058,0.131,-0.025,0.672,0.566,0.425,0.347,0.194
'0:00.721',0.172,0.219,0.047,-0.195,0.063,0.132,-0.025,0.675,0.575,0.431,0.356,0.194
'0:00.722',0.175,0.216,0.041,-0.195,0.067,0.128,-0.025,0.684,0.584,0.441,0.353,0.206
'0:00.723',0.175,0.216,0.041,-0.195,0.067,0.128,-0.025,0.694,0.588,0.444,0.356,0.212
'0:00.724',0.175,0.219,0.044,-0.197,0.066,0.131,-0.025,0.703,0.594,0.447,0.366,0.206
'0:00.725',0.178,0.222,0.044,-0.200,0.067,0.132,-0.025,0.712,0.600,0.450,0.375,0.206
'0:00.726',0.175,0.225,0.050,-0.200,0.063,0.137,-0.025,0.719,0.606,0.459,0.378,0.219
'0:00.727',0.175,0.228,0.053,-0.201,0.061,0.141,-0.025,0.731,0.613,0.469,0.388,0.225
'0:00.728',0.178,0.234,0.056,-0.206,0.061,0.145,-0.025,0.731,0.616,0.469,0.381,0.228
'0:00.729',0.175,0.241,0.066,-0.207,0.054,0.153,-0.025,0.731,0.619,0.475,0.381,0.225
'0:00.730',0.177,0.244,0.067,-0.210,0.055,0.155,-0.031,0.737,0.628,0.475,0.391,0.231
'0:00.731',0.175,0.247,0.072,-0.211,0.051,0.159,-0.031,0.737,0.631,0.481,0.394,0.231
'0:00.732',0.178,0.249,0.071,-0.213,0.054,0.159,-0.031,0.734,0.638,0.478,0.394,0.228
'0:00.733',0.178,0.250,0.072,-0.214,0.053,0.161,-0.031,0.737,0.638,0.481,0.400,0.231
'0:00.734',0.186,0.254,0.069,-0.220,0.058,0.161,-0.031,0.734,0.634,0.481,0.406,0.234
'0:00.735',0.191,0.259,0.069,-0.225,0.061,0.164,-0.031,0.737,0.638,0.487,0.406,0.237
'0:00.736',0.184,0.256,0.072,-0.220,0.056,0.164,-0.034,0.744,0.650,0.491,0.413,0.247
'0:00.737',0.181,0.259,0.078,-0.220,0.051,0.169,-0.038,0.750,0.656,0.494,0.413,0.250
'0:00.738',0.183,0.259,0.077,-0.221,0.053,0.168,-0.038,0.750,0.656,0.494,0.416,0.250
'0:00.739',0.181,0.259,0.078,-0.220,0.051,0.169,-0.038,0.750,0.656,0.494,0.419,0.250
'0:00.740',0.181,0.264,0.083,-0.222,0.049,0.173,-0.038,0.750,0.656,0.497,0.416,0.253
'0:00.741',0.181,0.266,0.084,-0.223,0.048,0.175,-0.038,0.750,0.656,0.494,0.419,0.250
'0:00.742',0.181,0.264,0.083,-0.222,0.049,0.174,-0.038,0.750,0.659,0.494,0.409,0.250
'0:00.743',0.181,0.266,0.084,-0.223,0.048,0.175,-0.038,0.750,0.663,0.494,0.413,0.250
'0:00.744',0.181,0.266,0.084,-0.223,0.048,0.175,-0.038,0.750,0.656,0.494,0.413,0.250
'0:00.745',0.178,0.266,0.088,-0.222,0.045,0.176,-0.038,0.750,0.656,0.494,0.413,0.250
'0:00.746',0.181,0.267,0.086,-0.224,0.048,0.176,-0.038,0.747,0.653,0.494,0.409,0.253
'0:00.747',0.178,0.269,0.091,-0.223,0.044,0.179,-0.038,0.737,0.644,0.500,0.413,0.250
'0:00.748',0.176,0.272,0.096,-0.224,0.040,0.184,-0.038,0.731,0.644,0.494,0.409,0.253
'0:00.749',0.175,0.272,0.097,-0.223,0.039,0.184,-0.038,0.725,0.638,0.487,0.406,0.256
'0:00.750',0.176,0.270,0.094,-0.223,0.041,0.182,-0.034,0.719,0.628,0.484,0.409,0.253
'0:00.751',0.175,0.269,0.094,-0.222,0.041,0.181,-0.038,0.706,0.625,0.475,0.406,0.256
'0:00.752',0.175,0.269,0.094,-0.222,0.041,0.181,-0.031,0.703,0.613,0.472,0.397,0.253
'0:00.753',0.175,0.269,0.094,-0.222,0.041,0.181,-0.031,0.694,0.606,0.469,0.394,0.244
'0:00.754',0.175,0.266,0.091,-0.220,0.042,0.178,-0.034,0.675,0.591,0.459,0.388,0.244
'0:00.755',0.169,0.263,0.094,-0.216,0.038,0.178,-0.031,0.662,0.581,0.450,0.381,0.237
'0:00.756',0.166,0.259,0.094,-0.212,0.036,0.176,-0.031,0.647,0.569,0.434,0.375,0.234
'0:00.757',0.166,0.259,0.094,-0.212,0.036,0.176,-0.031,0.631,0.556,0.419,0.363,0.225
'0:00.758',0.159,0.255,0.096,-0.207,0.032,0.175,-0.031,0.625,0.544,0.416,0.359,0.222
'0:00.759',0.150,0.250,0.100,-0.200,0.025,0.175,-0.025,0.612,0.531,0.406,0.350,0.219
'0:00.760',0.148,0.247,0.099,-0.197,0.024,0.172,-0.019,0.594,0.516,0.397,0.341,0.209
'0:00.761',0.150,0.247,0.097,-0.198,0.026,0.172,-0.019,0.575,0.500,0.381,0.325,0.200
'0:00.762',0.147,0.242,0.096,-0.194,0.026,0.169,-0.019,0.562,0.491,0.372,0.322,0.197
'0:00.763',0.134,0.231,0.097,-0.183,0.019,0.164,-0.019,0.544,0.475,0.363,0.312,0.194
'0:00.764',0.127,0.227,0.100,-0.177,0.013,0.163,-0.009,0.528,0.456,0.350,0.300,0.191
'0:00.765',0.116,0.219,0.103,-0.167,0.006,0.161,-0.006,0.512,0.444,0.337,0.294,0.181
'0:00.766',0.111,0.205,0.094,-0.158,0.009,0.149,-0.003,0.503,0.425,0.325,0.281,0.175
'0:00.767',0.100,0.194,0.094,-0.147,0.003,0.144,0.000,0.487,0.413,0.313,0.275,0.169
'0:00.768',0.095,0.189,0.094,-0.142,0.001,0.141,0.006,0.469,0.388,0.300,0.262,0.162
'0:00.769',0.091,0.184,0.094,-0.137,-0.002,0.139,0.006,0.444,0.369,0.287,0.250,0.156
'0:00.770',0.089,0.174,0.085,-0.131,0.002,0.129,0.012,0.425,0.350,0.272,0.234,0.150
'0:00.771',0.084,0.166,0.081,-0.125,0.001,0.123,0.012,0.406,0.338,0.256,0.219,0.144
'0:00.772',0.084,0.158,0.074,-0.121,0.005,0.116,0.012,0.394,0.319,0.238,0.209,0.137
'0:00.773',0.078,0.150,0.072,-0.114,0.003,0.111,0.012,0.375,0.300,0.219,0.194,0.131
'0:00.774',0.076,0.141,0.064,-0.108,0.006,0.102,0.016,0.353,0.281,0.206,0.181,0.116
'0:00.775',0.075,0.141,0.066,-0.107,0.004,0.103,0.012,0.331,0.263,0.194,0.169,0.106
'0:00.776',0.073,0.134,0.061,-0.104,0.006,0.097,0.016,0.316,0.247,0.181,0.156,0.094
'0:00.777',0.069,0.125,0.056,-0.097,0.006,0.091,0.019,0.294,0.231,0.169,0.150,0.087
'0:00.778',0.066,0.117,0.051,-0.091,0.007,0.084,0.025,0.284,0.216,0.156,0.137,0.081
'0:00.779',0.066,0.109,0.044,-0.088,0.011,0.076,0.025,0.269,0.200,0.144,0.125,0.075
'0:00.780',0.059,0.102,0.043,-0.081,0.008,0.072,0.022,0.253,0.184,0.131,0.116,0.059
'0:00.781',0.053,0.091,0.037,-0.072,0.008,0.064,0.019,0.238,0.163,0.119,0.100,0.056
'0:00.782',0.050,0.081,0.031,-0.066,0.009,0.056,0.025,0.216,0.150,0.106,0.097,0.044
'0:00.783',0.044,0.069,0.025,-0.056,0.009,0.047,0.025,0.200,0.131,0.100,0.087,0.037
'0:00.784',0.038,0.061,0.023,-0.049,0.007,0.042,0.025,0.191,0.125,0.084,0.072,0.041
'0:00.785',0.034,0.056,0.022,-0.045,0.006,0.039,0.025,0.175,0.106,0.069,0.063,0.031
'0:00.786',0.032,0.054,0.022,-0.043,0.005,0.038,0.025,0.159,0.091,0.056,0.056,0.025
'0:00.787',0.028,0.047,0.019,-0.038,0.004,0.033,0.025,0.144,0.075,0.050,0.044,0.019
'0:00.788',0.028,0.036,0.008,-0.032,0.010,0.022,0.025,0.134,0.066,0.037,0.041,0.016
'0:00.789',0.022,0.028,0.006,-0.025,0.008,0.017,0.025,0.125,0.050,0.031,0.031,0.012
'0:00.790',0.016,0.019,0.003,-0.017,0.006,0.011,0.025,0.109,0.041,0.025,0.022,0.000
'0:00.791',0.006,0.009,0.003,-0.007,0.001,0.006,0.031,0.094,0.031,0.013,0.013,-0.013
'0:00.792',0.006,-0.001,-0.007,-0.003,0.007,-0.004,0.031,0.081,0.019,-0.003,0.006,-0.009
'0:00.793',0.006,-0.006,-0.012,0.000,0.009,-0.009,0.031,0.069,0.006,-0.013,-0.006,-0.019
'0:00.794',0.003,-0.011,-0.014,0.004,0.009,-0.013,0.025,0.056,-0.006,-0.016,-0.013,-0.025
'0:00.795',0.003,-0.016,-0.019,0.006,0.011,-0.018,0.025,0.050,-0.013,-0.025,-0.019,-0.025
'0:00.796',0.004,-0.024,-0.028,0.010,0.016,-0.026,0.031,0.034,-0.028,-0.034,-0.025,-0.034
'0:00.797',0.003,-0.025,-0.028,0.011,0.016,-0.027,0.037,0.025,-0.038,-0.044,-0.031,-0.038
'0:00.798',-0.003,-0.034,-0.031,0.019,0.014,-0.033,0.037,0.013,-0.044,-0.050,-0.034,-0.041
'0:00.799',-0.012,-0.041,-0.028,0.027,0.008,-0.034,0.037,0.006,-0.050,-0.056,-0.038,-0.044
'0:00.800',-0.011,-0.042,-0.031,0.027,0.010,-0.037,0.037,0.000,-0.066,-0.062,-0.044,-0.053
'0:00.801',-0.009,-0.047,-0.037,0.028,0.014,-0.043,0.037,-0.013,-0.075,-0.075,-0.056,-0.056
'0:00.802',-0.006,-0.052,-0.046,0.029,0.019,-0.049,0.037,-0.019,-0.084,-0.078,-0.063,-0.063
'0:00.803',-0.009,-0.053,-0.044,0.031,0.017,-0.049,0.037,-0.025,-0.094,-0.088,-0.069,-0.069
'0:00.804',-0.017,-0.061,-0.044,0.039,0.013,-0.053,0.041,-0.031,-0.100,-0.094,-0.078,-0.066
'0:00.805',-0.022,-0.062,-0.041,0.042,0.009,-0.052,0.044,-0.038,-0.106,-0.100,-0.081,-0.069
'0:00.806',-0.023,-0.068,-0.044,0.046,0.011,-0.056,0.047,-0.047,-0.113,-0.100,-0.084,-0.072
'0:00.807',-0.025,-0.069,-0.044,0.047,0.009,-0.056,0.044,-0.056,-0.113,-0.106,-0.088,-0.081
'0:00.808',-0.025,-0.072,-0.047,0.049,0.011,-0.059,0.041,-0.059,-0.116,-0.116,-0.088,-0.081
'0:00.809',-0.025,-0.078,-0.053,0.052,0.014,-0.066,0.037,-0.063,-0.119,-0.119,-0.094,-0.081
'0:00.810',-0.025,-0.081,-0.056,0.053,0.016,-0.069,0.034,-0.066,-0.128,-0.122,-0.088,-0.088
'0:00.811',-0.028,-0.087,-0.059,0.058,0.016,-0.074,0.031,-0.063,-0.131,-0.119,-0.088,-0.088
'0:00.812',-0.030,-0.089,-0.059,0.060,0.014,-0.074,0.034,-0.072,-0.141,-0.125,-0.097,-0.091
'0:00.813',-0.028,-0.091,-0.062,0.059,0.017,-0.077,0.031,-0.075,-0.144,-0.125,-0.106,-0.094
'0:00.814',-0.028,-0.093,-0.064,0.061,0.018,-0.079,0.037,-0.084,-0.150,-0.128,-0.106,-0.094
'0:00.815',-0.028,-0.094,-0.066,0.061,0.019,-0.080,0.037,-0.094,-0.156,-0.137,-0.112,-0.100
'0:00.816',-0.027,-0.100,-0.073,0.064,0.023,-0.087,0.034,-0.094,-0.153,-0.137,-0.112,-0.100
'0:00.817',-0.025,-0.103,-0.078,0.064,0.026,-0.091,0.031,-0.094,-0.156,-0.144,-0.112,-0.100
'0:00.818',-0.031,-0.103,-0.072,0.067,0.020,-0.088,0.034,-0.100,-0.159,-0.144,-0.112,-0.100
'0:00.819',-0.031,-0.106,-0.075,0.069,0.022,-0.091,0.031,-0.100,-0.169,-0.144,-0.119,-0.100
'0:00.820',-0.031,-0.106,-0.075,0.069,0.022,-0.091,0.034,-0.106,-0.166,-0.150,-0.116,-0.103
'0:00.821',-0.031,-0.106,-0.075,0.069,0.022,-0.091,0.031,-0.113,-0.169,-0.150,-0.119,-0.100
'0:00.822',-0.034,-0.105,-0.071,0.070,0.018,-0.088,0.031,-0.116,-0.172,-0.153,-0.119,-0.100
'0:00.823',-0.031,-0.106,-0.075,0.069,0.022,-0.091,0.031,-0.119,-0.175,-0.163,-0.119,-0.100
'0:00.824',-0.036,-0.111,-0.075,0.073,0.019,-0.093,0.031,-0.116,-0.172,-0.163,-0.119,-0.097
'0:00.825',-0.041,-0.112,-0.072,0.077,0.016,-0.093,0.031,-0.119,-0.175,-0.163,-0.119,-0.094
'0:00.826',-0.041,-0.114,-0.073,0.077,0.016,-0.094,0.031,-0.119,-0.178,-0.159,-0.122,-0.100
'0:00.827',-0.041,-0.116,-0.075,0.078,0.017,-0.096,0.031,-0.119,-0.181,-0.156,-0.119,-0.100
'0:00.828',-0.042,-0.119,-0.076,0.081,0.017,-0.098,0.031,-0.125,-0.178,-0.156,-0.119,-0.103
'0:00.829',-0.041,-0.119,-0.078,0.080,0.019,-0.099,0.031,-0.125,-0.175,-0.156,-0.119,-0.106
'0:00.830',-0.042,-0.117,-0.075,0.080,0.016,-0.096,0.028,-0.125,-0.184,-0.156,-0.119,-0.106
'0:00.831',-0.041,-0.119,-0.078,0.080,0.019,-0.099,0.025,-0.125,-0.188,-0.163,-0.119,-0.106
'0:00.832',-0.042,-0.120,-0.078,0.081,0.018,-0.099,0.028,-0.128,-0.178,-0.163,-0.122,-0.106
'0:00.833',-0.044,-0.122,-0.078,0.083,0.017,-0.100,0.031,-0.125,-0.181,-0.163,-0.125,-0.106
'0:00.834',-0.042,-0.125,-0.082,0.084,0.020,-0.104,0.031,-0.128,-0.188,-0.166,-0.125,-0.109
'0:00.835',-0.044,-0.125,-0.081,0.084,0.019,-0.103,0.031,-0.131,-0.194,-0.169,-0.125,-0.106
'0:00.836',-0.048,-0.125,-0.077,0.087,0.014,-0.101,0.031,-0.134,-0.194,-0.169,-0.119,-0.109
'0:00.837',-0.050,-0.125,-0.075,0.088,0.013,-0.100,0.031,-0.138,-0.194,-0.169,-0.119,-0.106
'0:00.838',-0.053,-0.125,-0.072,0.089,0.009,-0.099,0.028,-0.138,-0.194,-0.166,-0.122,-0.109
'0:00.839',-0.056,-0.128,-0.072,0.092,0.008,-0.100,0.025,-0.138,-0.194,-0.163,-0.125,-0.113
'0:00.840',-0.055,-0.124,-0.069,0.089,0.007,-0.096,0.025,-0.138,-0.194,-0.163,-0.125,-0.116
'0:00.841',-0.053,-0.122,-0.069,0.088,0.008,-0.096,0.025,-0.138,-0.194,-0.163,-0.131,-0.119
'0:00.842',-0.049,-0.121,-0.072,0.085,0.011,-0.096,0.025,-0.138,-0.194,-0.163,-0.134,-0.122
'0:00.843',-0.047,-0.122,-0.075,0.084,0.014,-0.099,0.025,-0.138,-0.194,-0.163,-0.137,-0.125
'0:00.844',-0.047,-0.119,-0.072,0.083,0.013,-0.096,0.025,-0.141,-0.197,-0.159,-0.134,-0.122
'0:00.845',-0.047,-0.119,-0.072,0.083,0.013,-0.096,0.025,-0.138,-0.194,-0.163,-0.137,-0.125
'0:00.846',-0.045,-0.116,-0.071,0.081,0.013,-0.093,0.022,-0.134,-0.191,-0.163,-0.137,-0.125
'0:00.847',-0.047,-0.116,-0.069,0.081,0.011,-0.093,0.019,-0.138,-0.188,-0.163,-0.137,-0.125
'0:00.848',-0.047,-0.117,-0.070,0.082,0.011,-0.094,0.022,-0.138,-0.194,-0.169,-0.137,-0.128
'0:00.849',-0.047,-0.116,-0.069,0.081,0.011,-0.093,0.025,-0.138,-0.194,-0.163,-0.137,-0.125
'0:00.850',-0.047,-0.119,-0.072,0.083,0.013,-0.096,0.025,-0.138,-0.194,-0.172,-0.134,-0.122
'0:00.851',-0.047,-0.119,-0.072,0.083,0.013,-0.096,0.025,-0.138,-0.188,-0.169,-0.131,-0.113
'0:00.852',-0.047,-0.119,-0.072,0.083,0.013,-0.096,0.025,-0.141,-0.194,-0.166,-0.131,-0.113
'0:00.853',-0.044,-0.119,-0.075,0.081,0.016,-0.097,0.025,-0.144,-0.194,-0.169,-0.131,-0.113
'0:00.854',-0.042,-0.119,-0.076,0.081,0.017,-0.098,0.016,-0.147,-0.188,-0.172,-0.134,-0.113
'0:00.855',-0.041,-0.116,-0.075,0.078,0.017,-0.096,0.019,-0.150,-0.194,-0.175,-0.137,-0.119
'0:00.856',-0.037,-0.119,-0.081,0.078,0.022,-0.100,0.022,-0.144,-0.191,-0.169,-0.137,-0.113
'0:00.857',-0.041,-0.119,-0.078,0.080,0.019,-0.099,0.025,-0.144,-0.194,-0.169,-0.137,-0.113
'0:00.858',-0.044,-0.120,-0.076,0.082,0.016,-0.098,0.025,-0.141,-0.194,-0.169,-0.131,-0.109
'0:00.859',-0.047,-0.122,-0.075,0.084,0.014,-0.099,0.025,-0.138,-0.188,-0.169,-0.131,-0.106
'0:00.860',-0.050,-0.123,-0.073,0.087,0.011,-0.098,0.025,-0.141,-0.191,-0.169,-0.131,-0.106
'0:00.861',-0.050,-0.125,-0.075,0.088,0.013,-0.100,0.025,-0.138,-0.194,-0.169,-0.131,-0.100
'0:00.862',-0.051,-0.119,-0.067,0.085,0.008,-0.093,0.025,-0.138,-0.191,-0.163,-0.131,-0.100
'0:00.863',-0.050,-0.116,-0.066,0.083,0.008,-0.091,0.025,-0.138,-0.188,-0.163,-0.131,-0.100
'0:00.864',-0.042,-0.112,-0.070,0.077,0.014,-0.091,0.022,-0.141,-0.188,-0.163,-0.131,-0.100
'0:00.865',-0.034,-0.112,-0.078,0.074,0.022,-0.096,0.019,-0.144,-0.188,-0.163,-0.131,-0.100
'0:00.866',-0.037,-0.109,-0.072,0.074,0.017,-0.091,0.019,-0.141,-0.191,-0.166,-0.134,-0.100
'0:00.867',-0.037,-0.112,-0.075,0.075,0.019,-0.094,0.019,-0.138,-0.188,-0.163,-0.131,-0.100
'0:00.868',-0.039,-0.112,-0.074,0.076,0.018,-0.093,0.019,-0.141,-0.188,-0.159,-0.131,-0.100
'0:00.869',-0.041,-0.112,-0.072,0.077,0.016,-0.093,0.019,-0.138,-0.188,-0.156,-0.131,-0.100
'0:00.870',-0.044,-0.111,-0.067,0.077,0.011,-0.089,0.019,-0.138,-0.188,-0.166,-0.128,-0.100
'0:00.871',-0.047,-0.112,-0.066,0.080,0.009,-0.089,0.019,-0.138,-0.188,-0.169,-0.125,-0.100
'0:00.872',-0.046,-0.111,-0.066,0.079,0.010,-0.089,0.019,-0.134,-0.188,-0.163,-0.128,-0.100
'0:00.873',-0.044,-0.109,-0.066,0.077,0.011,-0.088,0.019,-0.131,-0.188,-0.163,-0.131,-0.100
'0:00.874',-0.039,-0.108,-0.069,0.074,0.014,-0.089,0.019,-0.131,-0.191,-0.166,-0.128,-0.103
'0:00.875',-0.034,-0.106,-0.072,0.071,0.019,-0.089,0.019,-0.125,-0.188,-0.163,-0.125,-0.106
'0:00.876',-0.034,-0.103,-0.069,0.069,0.017,-0.086,0.019,-0.125,-0.184,-0.163,-0.125,-0.109
'0:00.877',-0.034,-0.106,-0.072,0.071,0.019,-0.089,0.019,-0.125,-0.181,-0.163,-0.125,-0.106
'0:00.878',-0.034,-0.102,-0.067,0.068,0.016,-0.085,0.019,-0.128,-0.178,-0.159,-0.125,-0.106
'0:00.879',-0.034,-0.100,-0.066,0.067,0.016,-0.083,0.019,-0.131,-0.175,-0.156,-0.125,-0.113
'0:00.880',-0.037,-0.098,-0.061,0.068,0.011,-0.079,0.019,-0.131,-0.178,-0.159,-0.125,-0.113
'0:00.881',-0.041,-0.100,-0.059,0.071,0.009,-0.080,0.019,-0.131,-0.175,-0.163,-0.125,-0.113
'0:00.882',-0.039,-0.101,-0.062,0.071,0.011,-0.082,0.019,-0.131,-0.175,-0.163,-0.128,-0.106
'0:00.883',-0.037,-0.100,-0.062,0.069,0.013,-0.081,0.019,-0.131,-0.175,-0.163,-0.125,-0.113
'0:00.884',-0.034,-0.099,-0.064,0.067,0.015,-0.082,0.019,-0.125,-0.175,-0.159,-0.131,-0.106
'0:00.885',-0.034,-0.097,-0.062,0.066,0.014,-0.080,0.019,-0.125,-0.175,-0.156,-0.131,-0.106
'0:00.886',-0.031,-0.096,-0.064,0.064,0.016,-0.080,0.019,-0.122,-0.178,-0.159,-0.125,-0.116
'0:00.887',-0.034,-0.091,-0.056,0.063,0.011,-0.074,0.019,-0.119,-0.175,-0.156,-0.125,-0.113
'0:00.888',-0.031,-0.094,-0.062,0.063,0.016,-0.078,0.019,-0.122,-0.175,-0.153,-0.122,-0.109
'0:00.889',-0.034,-0.094,-0.059,0.064,0.013,-0.077,0.019,-0.119,-0.175,-0.150,-0.119,-0.106
'0:00.890',-0.034,-0.094,-0.059,0.064,0.013,-0.077,0.016,-0.119,-0.169,-0.153,-0.122,-0.106
'0:00.891',-0.034,-0.094,-0.059,0.064,0.013,-0.077,0.012,-0.119,-0.175,-0.150,-0.125,-0.106
'0:00.892',-0.034,-0.092,-0.057,0.063,0.011,-0.075,0.016,-0.119,-0.166,-0.147,-0.125,-0.103
'0:00.893',-0.037,-0.097,-0.059,0.067,0.011,-0.078,0.025,-0.119,-0.163,-0.144,-0.119,-0.094
'0:00.894',-0.037,-0.097,-0.059,0.067,0.011,-0.078,0.019,-0.113,-0.153,-0.147,-0.116,-0.094
'0:00.895',-0.037,-0.097,-0.059,0.067,0.011,-0.078,0.019,-0.119,-0.156,-0.150,-0.112,-0.094
'0:00.896',-0.039,-0.093,-0.054,0.066,0.008,-0.073,0.019,-0.119,-0.156,-0.150,-0.112,-0.091
'0:00.897',-0.037,-0.091,-0.053,0.064,0.008,-0.072,0.019,-0.119,-0.156,-0.150,-0.112,-0.088
'0:00.898',-0.037,-0.089,-0.052,0.064,0.007,-0.071,0.019,-0.119,-0.159,-0.156,-0.119,-0.097
'0:00.899',-0.037,-0.087,-0.050,0.063,0.006,-0.069,0.019,-0.119,-0.163,-0.156,-0.119,-0.094
'0:00.900',-0.037,-0.084,-0.047,0.061,0.004,-0.066,0.022,-0.116,-0.163,-0.150,-0.116,-0.100
'0:00.901',-0.041,-0.084,-0.044,0.063,0.001,-0.064,0.025,-0.113,-0.163,-0.150,-0.119,-0.100
'0:00.902',-0.042,-0.089,-0.047,0.066,0.003,-0.068,0.025,-0.116,-0.166,-0.150,-0.119,-0.094
'0:00.903',-0.044,-0.091,-0.047,0.067,0.001,-0.069,0.025,-0.119,-0.163,-0.150,-0.119,-0.094
'0:00.904',-0.041,-0.087,-0.047,0.064,0.003,-0.068,0.022,-0.119,-0.169,-0.150,-0.119,-0.094
'0:00.905',-0.041,-0.087,-0.047,0.064,0.003,-0.068,0.019,-0.113,-0.163,-0.150,-0.119,-0.094
'0:00.906',-0.039,-0.089,-0.050,0.064,0.006,-0.069,0.019,-0.119,-0.159,-0.153,-0.119,-0.097
'0:00.907',-0.041,-0.091,-0.050,0.066,0.004,-0.071,0.019,-0.113,-0.156,-0.150,-0.119,-0.094
'0:00.908',-0.039,-0.086,-0.047,0.063,0.004,-0.067,0.019,-0.113,-0.159,-0.147,-0.119,-0.097
'0:00.909',-0.037,-0.084,-0.047,0.061,0.004,-0.066,0.019,-0.113,-0.163,-0.144,-0.119,-0.094
'0:00.910',-0.041,-0.087,-0.047,0.064,0.003,-0.068,0.016,-0.116,-0.159,-0.153,-0.119,-0.097
'0:00.911',-0.041,-0.087,-0.047,0.064,0.003,-0.068,0.012,-0.119,-0.156,-0.150,-0.119,-0.100
'0:00.912',-0.041,-0.089,-0.048,0.065,0.004,-0.069,0.016,-0.116,-0.159,-0.153,-0.119,-0.100
'0:00.913',-0.041,-0.087,-0.047,0.064,0.003,-0.068,0.019,-0.113,-0.163,-0.150,-0.119,-0.100
'0:00.914',-0.042,-0.087,-0.045,0.065,0.001,-0.066,0.019,-0.116,-0.159,-0.150,-0.116,-0.097
'0:00.915',-0.044,-0.087,-0.044,0.066,0.000,-0.066,0.019,-0.113,-0.156,-0.150,-0.112,-0.094
'0:00.916',-0.037,-0.087,-0.050,0.063,0.006,-0.069,0.019,-0.116,-0.156,-0.150,-0.112,-0.094
'0:00.917',-0.034,-0.087,-0.053,0.061,0.009,-0.071,0.019,-0.119,-0.156,-0.150,-0.112,-0.094
'0:00.918',-0.033,-0.083,-0.050,0.058,0.008,-0.067,0.019,-0.119,-0.156,-0.153,-0.119,-0.094
'0:00.919',-0.031,-0.081,-0.050,0.056,0.009,-0.066,0.019,-0.119,-0.156,-0.156,-0.119,-0.094
'0:00.920',-0.033,-0.084,-0.051,0.059,0.009,-0.068,0.019,-0.119,-0.156,-0.153,-0.119,-0.100
'0:00.921',-0.031,-0.084,-0.053,0.058,0.011,-0.069,0.019,-0.119,-0.156,-0.150,-0.112,-0.094
'0:00.922',-0.039,-0.084,-0.046,0.062,0.003,-0.065,0.022,-0.119,-0.156,-0.150,-0.112,-0.094
'0:00.923',-0.037,-0.084,-0.047,0.061,0.004,-0.066,0.025,-0.119,-0.156,-0.150,-0.112,-0.094
'0:00.924',-0.037,-0.081,-0.044,0.059,0.003,-0.063,0.019,-0.119,-0.156,-0.150,-0.119,-0.091
'0:00.925',-0.037,-0.078,-0.041,0.058,0.001,-0.059,0.019,-0.119,-0.156,-0.150,-0.119,-0.094
'0:00.926',-0.036,-0.075,-0.039,0.056,0.001,-0.057,0.016,-0.116,-0.156,-0.150,-0.119,-0.097
'0:00.927',-0.037,-0.072,-0.034,0.055,-0.002,-0.053,0.019,-0.113,-0.156,-0.156,-0.119,-0.100
'0:00.928',-0.034,-0.072,-0.037,0.053,0.001,-0.055,0.019,-0.119,-0.156,-0.159,-0.116,-0.094
'0:00.929',-0.031,-0.072,-0.041,0.052,0.004,-0.056,0.019,-0.119,-0.156,-0.156,-0.112,-0.094
'0:00.930',-0.030,-0.073,-0.043,0.052,0.006,-0.058,0.019,-0.113,-0.156,-0.153,-0.116,-0.094
'0:00.931',-0.028,-0.075,-0.047,0.052,0.009,-0.061,0.019,-0.113,-0.156,-0.150,-0.119,-0.094
'0:00.932',-0.034,-0.079,-0.045,0.057,0.005,-0.063,0.022,-0.113,-0.156,-0.150,-0.119,-0.097
'0:00.933',-0.041,-0.084,-0.044,0.063,0.001,-0.064,0.025,-0.119,-0.156,-0.150,-0.119,-0.094
'0:00.934',-0.045,-0.087,-0.042,0.066,-0.001,-0.065,0.022,-0.119,-0.159,-0.147,-0.116,-0.097
'0:00.935',-0.047,-0.084,-0.037,0.066,-0.005,-0.061,0.019,-0.119,-0.156,-0.150,-0.112,-0.100
'0:00.936',-0.041,-0.087,-0.047,0.064,0.003,-0.068,0.019,-0.128,-0.159,-0.153,-0.116,-0.100
'0:00.937',-0.037,-0.084,-0.047,0.061,0.004,-0.066,0.019,-0.125,-0.163,-0.156,-0.112,-0.100
'0:00.938',-0.037,-0.083,-0.046,0.061,0.004,-0.064,0.022,-0.128,-0.163,-0.156,-0.116,-0.100
'0:00.939',-0.041,-0.084,-0.044,0.063,0.001,-0.064,0.019,-0.125,-0.163,-0.156,-0.119,-0.100
'0:00.940',-0.042,-0.087,-0.046,0.065,0.002,-0.067,0.016,-0.125,-0.166,-0.153,-0.119,-0.100
'0:00.941',-0.041,-0.084,-0.044,0.063,0.001,-0.064,0.019,-0.125,-0.163,-0.150,-0.119,-0.100
'0:00.942',-0.037,-0.084,-0.047,0.061,0.004,-0.066,0.012,-0.122,-0.163,-0.156,-0.119,-0.100
'0:00.943',-0.041,-0.084,-0.044,0.063,0.001,-0.064,0.012,-0.119,-0.163,-0.156,-0.119,-0.100
'0:00.944',-0.037,-0.087,-0.050,0.063,0.006,-0.069,0.012,-0.119,-0.163,-0.156,-0.116,-0.100
'0:00.945',-0.037,-0.087,-0.050,0.063,0.006,-0.069,0.012,-0.119,-0.163,-0.156,-0.119,-0.100
'0:00.946',-0.033,-0.084,-0.051,0.059,0.009,-0.068,0.016,-0.128,-0.166,-0.156,-0.125,-0.103
'0:00.947',-0.028,-0.081,-0.053,0.055,0.013,-0.068,0.019,-0.131,-0.169,-0.156,-0.131,-0.100
'0:00.948',-0.029,-0.078,-0.049,0.054,0.009,-0.064,0.016,-0.134,-0.178,-0.156,-0.128,-0.100
'0:00.949',-0.028,-0.084,-0.056,0.056,0.014,-0.071,0.012,-0.138,-0.175,-0.163,-0.125,-0.100
'0:00.950',-0.029,-0.086,-0.056,0.058,0.013,-0.071,0.009,-0.138,-0.178,-0.163,-0.125,-0.103
'0:00.951',-0.034,-0.087,-0.053,0.061,0.009,-0.071,0.006,-0.138,-0.175,-0.163,-0.125,-0.106
'0:00.952',-0.033,-0.086,-0.053,0.060,0.010,-0.070,0.012,-0.131,-0.172,-0.156,-0.122,-0.106
'0:00.953',-0.034,-0.081,-0.047,0.058,0.006,-0.064,0.006,-0.131,-0.169,-0.163,-0.125,-0.106
'0:00.954',-0.036,-0.078,-0.042,0.057,0.003,-0.061,0.006,-0.131,-0.175,-0.159,-0.128,-0.106
'0:00.955',-0.034,-0.075,-0.041,0.055,0.003,-0.058,0.006,-0.131,-0.175,-0.156,-0.131,-0.106
'0:00.956',-0.036,-0.079,-0.044,0.058,0.004,-0.062,0.006,-0.138,-0.178,-0.156,-0.128,-0.113
'0:00.957',-0.034,-0.078,-0.044,0.056,0.004,-0.061,0.006,-0.138,-0.181,-0.163,-0.125,-0.113
'0:00.958',-0.030,-0.077,-0.047,0.054,0.008,-0.062,0.000,-0.138,-0.181,-0.169,-0.131,-0.113
'0:00.959',-0.025,-0.075,-0.050,0.050,0.013,-0.063,0.006,-0.138,-0.181,-0.175,-0.131,-0.106
'0:00.960',-0.028,-0.081,-0.053,0.055,0.013,-0.068,0.006,-0.138,-0.181,-0.175,-0.128,-0.116
'0:00.961',-0.031,-0.084,-0.053,0.058,0.011,-0.069,0.006,-0.138,-0.181,-0.175,-0.125,-0.113
'0:00.962',-0.036,-0.086,-0.050,0.061,0.007,-0.068,0.006,-0.138,-0.181,-0.178,-0.128,-0.109
'0:00.963',-0.044,-0.087,-0.044,0.066,0.000,-0.066,0.006,-0.138,-0.181,-0.181,-0.131,-0.113
'0:00.964',-0.044,-0.087,-0.044,0.066,0.000,-0.066,0.006,-0.144,-0.181,-0.175,-0.131,-0.103
'0:00.965',-0.044,-0.087,-0.044,0.066,0.000,-0.066,0.006,-0.144,-0.181,-0.181,-0.131,-0.106
'0:00.966',-0.041,-0.086,-0.046,0.064,0.003,-0.066,0.009,-0.144,-0.178,-0.181,-0.131,-0.109
'0:00.967',-0.044,-0.084,-0.041,0.064,-0.002,-0.063,0.006,-0.144,-0.181,-0.181,-0.131,-0.113
'0:00.968',-0.042,-0.087,-0.045,0.065,0.001,-0.066,0.009,-0.147,-0.181,-0.178,-0.131,-0.109
'0:00.969',-0.044,-0.087,-0.044,0.066,0.000,-0.066,0.006,-0.150,-0.181,-0.175,-0.137,-0.106
'0:00.970',-0.047,-0.092,-0.045,0.069,-0.001,-0.069,0.009,-0.150,-0.181,-0.172,-0.134,-0.106
'0:00.971',-0.050,-0.097,-0.047,0.074,-0.002,-0.072,0.012,-0.150,-0.181,-0.175,-0.131,-0.106
'0:00.972',-0.051,-0.096,-0.044,0.074,-0.004,-0.070,0.016,-0.150,-0.184,-0.169,-0.134,-0.103
'0:00.973',-0.050,-0.094,-0.044,0.072,-0.003,-0.069,0.019,-0.150,-0.188,-0.175,-0.137,-0.100
'0:00.974',-0.052,-0.091,-0.039,0.071,-0.007,-0.065,0.016,-0.156,-0.188,-0.178,-0.137,-0.103
'0:00.975',-0.050,-0.087,-0.037,0.069,-0.006,-0.063,0.012,-0.156,-0.188,-0.181,-0.137,-0.106
'0:00.976',-0.047,-0.087,-0.041,0.067,-0.003,-0.064,0.009,-0.156,-0.194,-0.181,-0.137,-0.109
'0:00.977',-0.047,-0.091,-0.044,0.069,-0.002,-0.068,0.012,-0.156,-0.194,-0.181,-0.137,-0.106
'0:00.978',-0.042,-0.089,-0.047,0.066,0.002,-0.068,0.009,-0.163,-0.197,-0.181,-0.141,-0.106
'0:00.979',-0.037,-0.087,-0.050,0.063,0.006,-0.069,0.012,-0.163,-0.200,-0.181,-0.144,-0.106
'0:00.980',-0.039,-0.087,-0.048,0.064,0.004,-0.068,0.009,-0.163,-0.209,-0.181,-0.153,-0.106
'0:00.981',-0.037,-0.087,-0.050,0.063,0.006,-0.069,0.006,-0.163,-0.206,-0.181,-0.156,-0.106
'0:00.982',-0.039,-0.084,-0.045,0.062,0.003,-0.065,0.012,-0.163,-0.203,-0.188,-0.156,-0.113
'0:00.983',-0.034,-0.081,-0.047,0.058,0.006,-0.064,0.012,-0.163,-0.200,-0.188,-0.156,-0.119
'0:00.984',-0.034,-0.083,-0.048,0.059,0.007,-0.066,0.012,-0.166,-0.197,-0.188,-0.159,-0.109
'0:00.985',-0.037,-0.081,-0.044,0.059,0.003,-0.063,0.012,-0.169,-0.194,-0.188,-0.162,-0.113
'0:00.986',-0.041,-0.084,-0.044,0.063,0.001,-0.064,0.012,-0.172,-0.197,-0.188,-0.162,-0.113
'0:00.987',-0.047,-0.087,-0.041,0.067,-0.003,-0.064,0.012,-0.175,-0.194,-0.188,-0.162,-0.113
'0:00.988',-0.046,-0.091,-0.045,0.068,-0.001,-0.068,0.012,-0.175,-0.194,-0.188,-0.166,-0.113
'0:00.989',-0.044,-0.091,-0.047,0.067,0.001,-0.069,0.012,-0.175,-0.194,-0.188,-0.156,-0.113
'0:00.990',-0.041,-0.093,-0.052,0.067,0.006,-0.073,0.019,-0.172,-0.197,-0.191,-0.159,-0.116
'0:00.991',-0.037,-0.087,-0.050,0.063,0.006,-0.069,0.019,-0.169,-0.200,-0.194,-0.162,-0.119
'0:00.992',-0.041,-0.089,-0.048,0.065,0.004,-0.069,0.019,-0.172,-0.200,-0.191,-0.159,-0.116
'0:00.993',-0.037,-0.091,-0.053,0.064,0.008,-0.072,0.019,-0.169,-0.200,-0.188,-0.162,-0.113
'0:00.994',-0.033,-0.089,-0.056,0.061,0.011,-0.073,0.012,-0.169,-0.200,-0.194,-0.166,-0.119
'0:00.995',-0.034,-0.091,-0.056,0.063,0.011,-0.074,0.012,-0.169,-0.200,-0.188,-0.169,-0.113
'0:00.996',-0.041,-0.091,-0.050,0.066,0.004,-0.071,0.009,-0.172,-0.200,-0.194,-0.166,-0.116
'0:00.997',-0.044,-0.091,-0.047,0.067,0.001,-0.069,0.006,-0.181,-0.200,-0.194,-0.162,-0.113
'0:00.998',-0.045,-0.089,-0.044,0.067,-0.001,-0.066,0.009,-0.181,-0.206,-0.194,-0.172,-0.119
'0:00.999',-0.044,-0.091,-0.047,0.067,0.001,-0.069,0.012,-0.181,-0.206,-0.194,-0.175,-0.119
'0:01.000',-0.039,-0.089,-0.050,0.064,0.005,-0.070,0.009,-0.178,-0.209,-0.194,-0.169,-0.116
'0:01.001',-0.037,-0.091,-0.053,0.064,0.008,-0.072,0.006,-0.181,-0.213,-0.194,-0.169,-0.119
'0:01.002',-0.042,-0.091,-0.049,0.066,0.003,-0.070,0.006,-0.178,-0.209,-0.194,-0.166,-0.119
'0:01.003',-0.044,-0.091,-0.047,0.067,0.001,-0.069,0.006,-0.181,-0.206,-0.194,-0.169,-0.119
'0:01.004',-0.047,-0.092,-0.045,0.069,-0.001,-0.069,0.006,-0.184,-0.209,-0.194,-0.159,-0.119
'0:01.005',-0.050,-0.094,-0.044,0.072,-0.003,-0.069,0.012,-0.181,-0.206,-0.194,-0.162,-0.119
'0:01.006',-0.050,-0.093,-0.042,0.071,-0.004,-0.068,0.003,-0.181,-0.203,-0.194,-0.156,-0.119
'0:01.007',-0.050,-0.091,-0.041,0.071,-0.005,-0.066,0.006,-0.181,-0.206,-0.194,-0.156,-0.119
'0:01.008',-0.050,-0.095,-0.045,0.073,-0.002,-0.070,0.009,-0.181,-0.206,-0.194,-0.162,-0.116
'0:01.009',-0.044,-0.094,-0.050,0.069,0.003,-0.072,0.006,-0.181,-0.206,-0.194,-0.162,-0.113
'0:01.010',-0.042,-0.094,-0.051,0.068,0.004,-0.073,0.003,-0.184,-0.206,-0.194,-0.166,-0.116
'0:01.011',-0.041,-0.094,-0.053,0.067,0.006,-0.074,0.000,-0.181,-0.206,-0.200,-0.169,-0.119
'0:01.012',-0.044,-0.093,-0.049,0.068,0.003,-0.071,0.003,-0.181,-0.203,-0.194,-0.169,-0.119
'0:01.013',-0.047,-0.094,-0.047,0.071,0.000,-0.071,0.006,-0.181,-0.200,-0.194,-0.169,-0.119
'0:01.014',-0.042,-0.089,-0.047,0.066,0.002,-0.068,0.003,-0.181,-0.203,-0.194,-0.172,-0.119
'0:01.015',-0.037,-0.087,-0.050,0.063,0.006,-0.069,0.000,-0.181,-0.206,-0.200,-0.175,-0.119
'0:01.016',-0.034,-0.091,-0.056,0.063,0.011,-0.074,0.000,-0.184,-0.206,-0.200,-0.172,-0.119
'0:01.017',-0.034,-0.094,-0.059,0.064,0.013,-0.077,0.000,-0.188,-0.206,-0.200,-0.169,-0.119
'0:01.018',-0.044,-0.100,-0.056,0.072,0.006,-0.078,0.003,-0.188,-0.216,-0.200,-0.169,-0.119
'0:01.019',-0.056,-0.103,-0.047,0.080,-0.005,-0.075,0.006,-0.188,-0.219,-0.194,-0.169,-0.119
'0:01.020',-0.053,-0.102,-0.049,0.077,-0.002,-0.076,0.009,-0.188,-0.209,-0.194,-0.172,-0.119
'0:01.021',-0.053,-0.100,-0.047,0.077,-0.003,-0.074,0.006,-0.188,-0.213,-0.200,-0.175,-0.119
'0:01.022',-0.050,-0.099,-0.049,0.074,-0.001,-0.074,0.003,-0.188,-0.213,-0.200,-0.175,-0.122
'0:01.023',-0.050,-0.097,-0.047,0.074,-0.002,-0.072,0.006,-0.188,-0.213,-0.200,-0.175,-0.125
'0:01.024',-0.051,-0.096,-0.044,0.074,-0.004,-0.070,0.009,-0.184,-0.209,-0.200,-0.175,-0.125
'0:01.025',-0.050,-0.094,-0.044,0.072,-0.003,-0.069,0.000,-0.181,-0.213,-0.200,-0.175,-0.125
'0:01.026',-0.050,-0.094,-0.044,0.072,-0.003,-0.069,0.000,-0.181,-0.213,-0.200,-0.175,-0.125
'0:01.027',-0.050,-0.094,-0.044,0.072,-0.003,-0.069,0.000,-0.181,-0.213,-0.200,-0.175,-0.125
'0:01.028',-0.053,-0.099,-0.046,0.076,-0.004,-0.073,0.000,-0.181,-0.213,-0.197,-0.175,-0.125
'0:01.029',-0.056,-0.100,-0.044,0.078,-0.006,-0.072,0.000,-0.181,-0.213,-0.194,-0.175,-0.125
'0:01.030',-0.061,-0.101,-0.041,0.081,-0.010,-0.071,0.009,-0.184,-0.213,-0.194,-0.172,-0.122
'0:01.031',-0.062,-0.103,-0.041,0.083,-0.011,-0.072,0.006,-0.188,-0.213,-0.194,-0.169,-0.119
'0:01.032',-0.059,-0.102,-0.042,0.081,-0.009,-0.073,0.006,-0.188,-0.213,-0.197,-0.169,-0.119
'0:01.033',-0.053,-0.100,-0.047,0.077,-0.003,-0.074,0.006,-0.188,-0.213,-0.200,-0.169,-0.119
'0:01.034',-0.052,-0.099,-0.047,0.076,-0.002,-0.073,0.003,-0.188,-0.209,-0.200,-0.169,-0.119
'0:01.035',-0.047,-0.094,-0.047,0.071,0.000,-0.071,0.000,-0.194,-0.213,-0.200,-0.175,-0.119
'0:01.036',-0.046,-0.093,-0.047,0.069,0.001,-0.070,-0.003,-0.188,-0.216,-0.200,-0.172,-0.122
'0:01.037',-0.047,-0.091,-0.044,0.069,-0.002,-0.068,-0.006,-0.194,-0.213,-0.200,-0.175,-0.125
'0:01.038',-0.047,-0.094,-0.047,0.071,0.000,-0.071,-0.003,-0.188,-0.213,-0.203,-0.175,-0.125
'0:01.039',-0.047,-0.094,-0.047,0.071,0.000,-0.071,0.000,-0.188,-0.213,-0.206,-0.169,-0.125
'0:01.040',-0.050,-0.093,-0.042,0.071,-0.004,-0.068,0.006,-0.191,-0.216,-0.203,-0.175,-0.125
'0:01.041',-0.050,-0.094,-0.044,0.072,-0.003,-0.069,0.000,-0.194,-0.219,-0.206,-0.175,-0.125
'0:01.042',-0.053,-0.095,-0.042,0.074,-0.006,-0.069,0.000,-0.191,-0.219,-0.203,-0.172,-0.122
'0:01.043',-0.056,-0.097,-0.041,0.077,-0.008,-0.069,0.000,-0.194,-0.219,-0.206,-0.169,-0.119
'0:01.044',-0.061,-0.095,-0.034,0.078,-0.013,-0.065,0.009,-0.188,-0.216,-0.206,-0.172,-0.122
'0:01.045',-0.069,-0.100,-0.031,0.084,-0.019,-0.066,0.012,-0.194,-0.213,-0.206,-0.175,-0.125
'0:01.046',-0.066,-0.100,-0.034,0.083,-0.016,-0.068,0.009,-0.188,-0.216,-0.206,-0.175,-0.122
'0:01.047',-0.062,-0.100,-0.037,0.081,-0.012,-0.069,0.006,-0.194,-0.219,-0.206,-0.175,-0.119
'0:01.048',-0.059,-0.099,-0.039,0.079,-0.010,-0.069,0.006,-0.188,-0.216,-0.203,-0.178,-0.119
'0:01.049',-0.056,-0.097,-0.041,0.077,-0.008,-0.069,0.006,-0.188,-0.219,-0.200,-0.175,-0.125
'0:01.050',-0.056,-0.101,-0.045,0.079,-0.006,-0.073,0.006,-0.191,-0.213,-0.206,-0.169,-0.119
'0:01.051',-0.053,-0.100,-0.047,0.077,-0.003,-0.074,0.000,-0.188,-0.219,-0.200,-0.169,-0.119
'0:01.052',-0.049,-0.100,-0.051,0.074,0.001,-0.076,0.009,-0.191,-0.209,-0.209,-0.169,-0.119
'0:01.053',-0.047,-0.100,-0.053,0.074,0.003,-0.077,0.012,-0.194,-0.213,-0.206,-0.175,-0.119
'0:01.054',-0.049,-0.100,-0.051,0.074,0.001,-0.076,0.003,-0.197,-0.219,-0.206,-0.175,-0.119
'0:01.055',-0.047,-0.103,-0.056,0.075,0.004,-0.080,0.006,-0.194,-0.219,-0.206,-0.169,-0.119
'0:01.056',-0.050,-0.104,-0.054,0.077,0.002,-0.079,0.006,-0.194,-0.219,-0.206,-0.172,-0.116
'0:01.057',-0.050,-0.106,-0.056,0.078,0.003,-0.081,0.006,-0.194,-0.219,-0.206,-0.169,-0.113
'0:01.058',-0.054,-0.108,-0.053,0.081,-0.001,-0.081,0.003,-0.188,-0.216,-0.209,-0.169,-0.116
'0:01.059',-0.059,-0.109,-0.050,0.084,-0.005,-0.080,0.006,-0.188,-0.213,-0.212,-0.169,-0.119
'0:01.060',-0.058,-0.108,-0.050,0.083,-0.004,-0.079,0.009,-0.188,-0.209,-0.209,-0.169,-0.119
'0:01.061',-0.056,-0.106,-0.050,0.081,-0.003,-0.078,0.012,-0.188,-0.206,-0.206,-0.169,-0.119
'0:01.062',-0.054,-0.103,-0.049,0.079,-0.003,-0.076,0.006,-0.188,-0.206,-0.209,-0.172,-0.119
'0:01.063',-0.056,-0.103,-0.047,0.080,-0.005,-0.075,0.006,-0.188,-0.213,-0.200,-0.175,-0.119
'0:01.064',-0.056,-0.103,-0.047,0.080,-0.005,-0.075,0.006,-0.191,-0.206,-0.200,-0.172,-0.116
'0:01.065',-0.056,-0.106,-0.050,0.081,-0.003,-0.078,0.006,-0.188,-0.206,-0.200,-0.169,-0.113
'0:01.066',-0.056,-0.104,-0.048,0.081,-0.004,-0.076,0.006,-0.188,-0.209,-0.200,-0.175,-0.113
'0:01.067',-0.056,-0.103,-0.047,0.080,-0.005,-0.075,0.006,-0.188,-0.213,-0.200,-0.175,-0.113
'0:01.068',-0.057,-0.103,-0.046,0.081,-0.006,-0.074,0.006,-0.184,-0.213,-0.203,-0.172,-0.116
'0:01.069',-0.056,-0.103,-0.047,0.080,-0.005,-0.075,0.006,-0.181,-0.213,-0.206,-0.169,-0.119
'0:01.070',-0.055,-0.103,-0.048,0.079,-0.004,-0.076,0.006,-0.184,-0.216,-0.203,-0.169,-0.119
'0:01.071',-0.053,-0.103,-0.050,0.078,-0.002,-0.077,0.006,-0.188,-0.213,-0.200,-0.169,-0.119
'0:01.072',-0.053,-0.106,-0.053,0.080,0.000,-0.080,0.006,-0.188,-0.213,-0.200,-0.166,-0.119
'0:01.073',-0.053,-0.103,-0.050,0.078,-0.002,-0.077,0.012,-0.181,-0.213,-0.200,-0.162,-0.119
'0:01.074',-0.049,-0.105,-0.056,0.077,0.004,-0.081,0.012,-0.191,-0.213,-0.200,-0.159,-0.119
'0:01.075',-0.044,-0.103,-0.059,0.074,0.008,-0.081,0.012,-0.194,-0.219,-0.200,-0.156,-0.119
'0:01.076',-0.042,-0.102,-0.059,0.073,0.008,-0.081,0.006,-0.184,-0.213,-0.200,-0.162,-0.119
'0:01.077',-0.037,-0.103,-0.066,0.071,0.014,-0.084,0.006,-0.181,-0.213,-0.200,-0.162,-0.119
'0:01.078',-0.042,-0.104,-0.062,0.073,0.010,-0.084,0.019,-0.175,-0.213,-0.197,-0.162,-0.116
'0:01.079',-0.047,-0.109,-0.062,0.078,0.008,-0.086,0.019,-0.175,-0.213,-0.194,-0.162,-0.119
'0:01.080',-0.044,-0.106,-0.062,0.075,0.009,-0.084,0.019,-0.172,-0.206,-0.191,-0.159,-0.119
'0:01.081',-0.044,-0.109,-0.066,0.077,0.011,-0.088,0.019,-0.175,-0.206,-0.194,-0.162,-0.125
'0:01.082',-0.047,-0.119,-0.072,0.083,0.013,-0.096,0.019,-0.175,-0.209,-0.197,-0.162,-0.122
'0:01.083',-0.050,-0.128,-0.078,0.089,0.014,-0.103,0.012,-0.175,-0.206,-0.200,-0.162,-0.119
'0:01.084',-0.048,-0.128,-0.080,0.088,0.016,-0.104,0.016,-0.181,-0.209,-0.200,-0.169,-0.122
'0:01.085',-0.047,-0.125,-0.078,0.086,0.016,-0.102,0.019,-0.181,-0.206,-0.200,-0.175,-0.125
'0:01.086',-0.042,-0.122,-0.079,0.083,0.018,-0.101,0.012,-0.184,-0.213,-0.206,-0.172,-0.122
'0:01.087',-0.041,-0.112,-0.072,0.077,0.016,-0.093,0.012,-0.181,-0.213,-0.206,-0.175,-0.125
'0:01.088',-0.036,-0.112,-0.076,0.074,0.020,-0.094,0.009,-0.184,-0.209,-0.206,-0.175,-0.128
'0:01.089',-0.034,-0.106,-0.072,0.071,0.019,-0.089,0.006,-0.181,-0.206,-0.200,-0.169,-0.131
'0:01.090',-0.032,-0.101,-0.069,0.067,0.018,-0.085,0.006,-0.178,-0.200,-0.200,-0.169,-0.128
'0:01.091',-0.034,-0.097,-0.062,0.066,0.014,-0.080,0.012,-0.175,-0.194,-0.194,-0.162,-0.125
'0:01.092',-0.033,-0.086,-0.052,0.059,0.009,-0.069,0.025,-0.163,-0.188,-0.184,-0.153,-0.125
'0:01.093',-0.031,-0.075,-0.044,0.053,0.006,-0.059,0.031,-0.150,-0.181,-0.175,-0.144,-0.113
'0:01.094',-0.033,-0.061,-0.028,0.048,-0.002,-0.045,0.037,-0.147,-0.169,-0.169,-0.141,-0.103
'0:01.095',-0.031,-0.047,-0.016,0.039,-0.008,-0.031,0.044,-0.144,-0.169,-0.163,-0.137,-0.100
'0:01.096',-0.024,-0.041,-0.017,0.032,-0.004,-0.029,0.041,-0.134,-0.163,-0.156,-0.131,-0.103
'0:01.097',-0.016,-0.034,-0.019,0.025,0.001,-0.027,0.044,-0.131,-0.156,-0.156,-0.131,-0.100
'0:01.098',-0.012,-0.022,-0.009,0.018,-0.002,-0.016,0.041,-0.125,-0.159,-0.153,-0.122,-0.088
'0:01.099',-0.006,-0.013,-0.006,0.009,0.000,-0.009,0.044,-0.125,-0.156,-0.156,-0.119,-0.081
'0:01.100',-0.006,-0.008,-0.001,0.007,-0.002,-0.004,0.050,-0.122,-0.153,-0.147,-0.116,-0.081
'0:01.101',-0.009,-0.009,0.000,0.009,-0.005,-0.005,0.056,-0.125,-0.150,-0.144,-0.112,-0.081
'0:01.102',-0.014,-0.011,0.003,0.013,-0.009,-0.004,0.059,-0.122,-0.147,-0.144,-0.112,-0.078
'0:01.103',-0.016,-0.013,0.003,0.014,-0.009,-0.005,0.056,-0.125,-0.144,-0.144,-0.112,-0.075
'0:01.104',-0.019,-0.013,0.006,0.016,-0.012,-0.003,0.059,-0.122,-0.144,-0.147,-0.116,-0.075
'0:01.105',-0.016,-0.013,0.003,0.014,-0.009,-0.005,0.050,-0.125,-0.150,-0.150,-0.119,-0.075
'0:01.106',-0.008,-0.016,-0.007,0.012,-0.001,-0.012,0.041,-0.125,-0.150,-0.147,-0.122,-0.078
'0:01.107',0.000,-0.019,-0.019,0.009,0.009,-0.019,0.031,-0.125,-0.150,-0.150,-0.125,-0.081
'0:01.108',0.004,-0.021,-0.025,0.008,0.014,-0.023,0.022,-0.128,-0.153,-0.150,-0.122,-0.081
'0:01.109',0.009,-0.022,-0.031,0.006,0.020,-0.027,0.012,-0.131,-0.163,-0.156,-0.125,-0.088
'0:01.110',0.008,-0.023,-0.031,0.007,0.019,-0.028,0.012,-0.134,-0.166,-0.159,-0.128,-0.084
'0:01.111',0.009,-0.022,-0.031,0.006,0.020,-0.027,0.012,-0.138,-0.163,-0.156,-0.125,-0.088
'0:01.112',0.006,-0.022,-0.028,0.008,0.017,-0.025,0.009,-0.128,-0.159,-0.150,-0.119,-0.081
'0:01.113',0.003,-0.016,-0.019,0.006,0.011,-0.018,0.006,-0.125,-0.156,-0.144,-0.119,-0.081
'0:01.114',-0.003,-0.006,-0.003,0.005,0.000,-0.005,0.006,-0.113,-0.147,-0.137,-0.116,-0.075
'0:01.115',-0.009,0.000,0.009,0.005,-0.009,0.004,0.012,-0.106,-0.138,-0.131,-0.112,-0.069
'0:01.116',-0.009,0.004,0.014,0.003,-0.012,0.009,0.012,-0.106,-0.131,-0.131,-0.106,-0.063
'0:01.117',-0.012,0.013,0.025,0.000,-0.019,0.019,0.019,-0.106,-0.131,-0.125,-0.100,-0.063
'0:01.118',-0.009,0.016,0.025,-0.003,-0.017,0.020,0.025,-0.103,-0.128,-0.122,-0.097,-0.056
'0:01.119',-0.003,0.022,0.025,-0.009,-0.014,0.023,0.025,-0.106,-0.131,-0.125,-0.094,-0.056
'0:01.120',-0.006,0.028,0.034,-0.011,-0.021,0.031,0.025,-0.103,-0.128,-0.116,-0.088,-0.053
'0:01.121',-0.006,0.028,0.034,-0.011,-0.021,0.031,0.025,-0.100,-0.125,-0.113,-0.081,-0.050
'0:01.122',-0.008,0.031,0.039,-0.011,-0.024,0.035,0.022,-0.106,-0.128,-0.113,-0.084,-0.056
'0:01.123',-0.006,0.034,0.041,-0.014,-0.024,0.037,0.019,-0.106,-0.131,-0.113,-0.081,-0.056
'0:01.124',-0.003,0.038,0.041,-0.017,-0.022,0.039,0.022,-0.109,-0.131,-0.116,-0.084,-0.056
'0:01.125',0.000,0.041,0.041,-0.020,-0.021,0.041,0.025,-0.119,-0.138,-0.113,-0.088,-0.056
'0:01.126',-0.009,0.041,0.050,-0.016,-0.030,0.045,0.025,-0.116,-0.134,-0.113,-0.094,-0.053
'0:01.127',-0.019,0.034,0.053,-0.007,-0.036,0.044,0.025,-0.113,-0.131,-0.113,-0.094,-0.050
'0:01.128',-0.019,0.031,0.050,-0.006,-0.034,0.041,0.022,-0.116,-0.131,-0.113,-0.091,-0.047
'0:01.129',-0.019,0.028,0.047,-0.004,-0.033,0.037,0.025,-0.119,-0.131,-0.113,-0.088,-0.050
'0:01.130',-0.019,0.022,0.041,-0.001,-0.030,0.031,0.025,-0.116,-0.131,-0.119,-0.091,-0.053
'0:01.131',-0.019,0.019,0.037,0.000,-0.028,0.028,0.025,-0.113,-0.131,-0.113,-0.094,-0.056
'0:01.132',-0.020,0.014,0.034,0.003,-0.027,0.024,0.025,-0.113,-0.131,-0.119,-0.094,-0.053
'0:01.133',-0.019,0.006,0.025,0.006,-0.022,0.016,0.025,-0.113,-0.131,-0.119,-0.094,-0.056
'0:01.134',-0.012,-0.003,0.009,0.008,-0.011,0.003,0.022,-0.113,-0.131,-0.125,-0.097,-0.063
'0:01.135',-0.009,-0.013,-0.003,0.011,-0.003,-0.008,0.019,-0.119,-0.131,-0.131,-0.100,-0.063
'0:01.136',-0.008,-0.020,-0.012,0.014,0.002,-0.016,0.022,-0.116,-0.131,-0.122,-0.097,-0.066
'0:01.137',-0.006,-0.025,-0.019,0.016,0.006,-0.022,0.025,-0.119,-0.131,-0.125,-0.094,-0.069
'0:01.138',-0.003,-0.025,-0.022,0.014,0.009,-0.024,0.019,-0.119,-0.138,-0.128,-0.100,-0.066
'0:01.139',-0.003,-0.028,-0.025,0.016,0.011,-0.027,0.019,-0.119,-0.138,-0.131,-0.100,-0.063
'0:01.140',-0.001,-0.028,-0.027,0.015,0.013,-0.028,0.016,-0.122,-0.147,-0.137,-0.103,-0.069
'0:01.141',-0.003,-0.028,-0.025,0.016,0.011,-0.027,0.012,-0.125,-0.156,-0.137,-0.106,-0.069
'0:01.142',-0.011,-0.033,-0.022,0.022,0.006,-0.028,0.016,-0.128,-0.156,-0.144,-0.116,-0.072
'0:01.143',-0.012,-0.034,-0.022,0.024,0.004,-0.028,0.012,-0.138,-0.156,-0.144,-0.119,-0.069
'0:01.144',-0.014,-0.042,-0.027,0.028,0.006,-0.035,0.016,-0.138,-0.156,-0.147,-0.122,-0.072
'0:01.145',-0.012,-0.044,-0.031,0.028,0.009,-0.038,0.012,-0.138,-0.156,-0.150,-0.119,-0.075
'0:01.146',-0.011,-0.044,-0.032,0.028,0.011,-0.038,0.009,-0.138,-0.159,-0.153,-0.119,-0.069
'0:01.147',-0.012,-0.044,-0.031,0.028,0.009,-0.038,0.006,-0.138,-0.156,-0.150,-0.119,-0.069
'0:01.148',-0.011,-0.044,-0.032,0.028,0.011,-0.038,0.003,-0.144,-0.159,-0.153,-0.119,-0.069
'0:01.149',-0.012,-0.044,-0.031,0.028,0.009,-0.038,0.000,-0.144,-0.163,-0.156,-0.125,-0.069
'0:01.150',-0.017,-0.047,-0.030,0.032,0.006,-0.039,0.003,-0.144,-0.163,-0.150,-0.125,-0.069
'0:01.151',-0.022,-0.047,-0.025,0.034,0.001,-0.036,0.000,-0.144,-0.163,-0.150,-0.125,-0.069
'0:01.152',-0.029,-0.049,-0.019,0.039,-0.005,-0.034,0.003,-0.141,-0.159,-0.153,-0.122,-0.066
'0:01.153',-0.037,-0.050,-0.012,0.044,-0.012,-0.031,0.006,-0.144,-0.163,-0.150,-0.125,-0.069
'0:01.154',-0.039,-0.057,-0.018,0.049,-0.011,-0.038,0.006,-0.141,-0.163,-0.153,-0.128,-0.069
'0:01.155',-0.041,-0.062,-0.022,0.052,-0.009,-0.043,0.006,-0.144,-0.163,-0.150,-0.125,-0.069
'0:01.156',-0.041,-0.064,-0.024,0.053,-0.009,-0.044,0.003,-0.147,-0.166,-0.156,-0.131,-0.072
'0:01.157',-0.041,-0.066,-0.025,0.053,-0.008,-0.046,0.006,-0.150,-0.175,-0.156,-0.131,-0.075
'0:01.158',-0.041,-0.070,-0.029,0.056,-0.006,-0.050,0.003,-0.159,-0.175,-0.163,-0.137,-0.088
'0:01.159',-0.037,-0.075,-0.037,0.056,0.000,-0.056,0.006,-0.156,-0.175,-0.163,-0.137,-0.094
'0:01.160',-0.037,-0.083,-0.046,0.061,0.004,-0.064,0.006,-0.172,-0.188,-0.172,-0.144,-0.100
'0:01.161',-0.037,-0.091,-0.053,0.064,0.008,-0.072,0.006,-0.175,-0.188,-0.175,-0.150,-0.106
'0:01.162',-0.044,-0.100,-0.056,0.072,0.006,-0.078,0.006,-0.181,-0.194,-0.184,-0.153,-0.113
'0:01.163',-0.053,-0.109,-0.056,0.081,0.001,-0.083,0.006,-0.181,-0.200,-0.188,-0.150,-0.113
'0:01.164',-0.062,-0.117,-0.054,0.090,-0.004,-0.086,0.009,-0.184,-0.197,-0.191,-0.159,-0.113
'0:01.165',-0.069,-0.122,-0.053,0.096,-0.008,-0.088,0.012,-0.181,-0.200,-0.194,-0.162,-0.113
'0:01.166',-0.062,-0.125,-0.062,0.094,0.000,-0.094,0.003,-0.188,-0.200,-0.194,-0.162,-0.116
'0:01.167',-0.066,-0.128,-0.062,0.097,-0.002,-0.096,0.006,-0.188,-0.200,-0.200,-0.169,-0.119
'0:01.168',-0.067,-0.128,-0.061,0.098,-0.003,-0.095,0.009,-0.194,-0.206,-0.203,-0.169,-0.119
'0:01.169',-0.066,-0.128,-0.062,0.097,-0.002,-0.096,0.006,-0.194,-0.206,-0.206,-0.169,-0.119
'0:01.170',-0.064,-0.134,-0.070,0.099,0.003,-0.103,0.012,-0.194,-0.209,-0.206,-0.169,-0.119
'0:01.171',-0.062,-0.138,-0.075,0.100,0.006,-0.106,0.012,-0.188,-0.206,-0.206,-0.169,-0.119
'0:01.172',-0.067,-0.136,-0.069,0.101,0.001,-0.103,0.009,-0.197,-0.206,-0.206,-0.169,-0.119
'0:01.173',-0.066,-0.138,-0.072,0.102,0.003,-0.105,0.006,-0.194,-0.206,-0.206,-0.169,-0.119
'0:01.174',-0.064,-0.136,-0.072,0.101,0.004,-0.104,0.006,-0.194,-0.209,-0.209,-0.172,-0.119
'0:01.175',-0.066,-0.131,-0.066,0.099,0.000,-0.099,0.006,-0.194,-0.213,-0.212,-0.175,-0.119
'0:01.176',-0.066,-0.138,-0.072,0.102,0.003,-0.105,0.006,-0.197,-0.213,-0.203,-0.175,-0.122
'0:01.177',-0.066,-0.141,-0.075,0.103,0.004,-0.108,0.006,-0.200,-0.213,-0.200,-0.175,-0.125
'0:01.178',-0.064,-0.139,-0.074,0.102,0.005,-0.107,0.006,-0.197,-0.209,-0.206,-0.175,-0.125
'0:01.179',-0.062,-0.141,-0.078,0.102,0.008,-0.109,0.006,-0.194,-0.213,-0.206,-0.175,-0.125
'0:01.180',-0.062,-0.142,-0.079,0.102,0.008,-0.111,0.009,-0.191,-0.213,-0.206,-0.181,-0.128
'0:01.181',-0.066,-0.144,-0.078,0.105,0.006,-0.111,0.006,-0.194,-0.213,-0.206,-0.175,-0.131
'0:01.182',-0.067,-0.142,-0.075,0.105,0.004,-0.109,0.009,-0.194,-0.209,-0.206,-0.175,-0.131
'0:01.183',-0.066,-0.144,-0.078,0.105,0.006,-0.111,0.012,-0.194,-0.206,-0.212,-0.175,-0.131
'0:01.184',-0.066,-0.148,-0.082,0.107,0.008,-0.116,0.009,-0.194,-0.213,-0.212,-0.178,-0.131
'0:01.185',-0.062,-0.147,-0.084,0.105,0.011,-0.116,0.006,-0.200,-0.213,-0.212,-0.175,-0.131
'0:01.186',-0.058,-0.144,-0.086,0.101,0.014,-0.115,0.006,-0.200,-0.213,-0.212,-0.172,-0.128
'0:01.187',-0.053,-0.141,-0.087,0.097,0.017,-0.114,0.006,-0.200,-0.213,-0.206,-0.169,-0.125
'0:01.188',-0.053,-0.144,-0.091,0.099,0.019,-0.118,0.003,-0.200,-0.213,-0.209,-0.178,-0.128
'0:01.189',-0.053,-0.147,-0.094,0.100,0.020,-0.121,0.000,-0.200,-0.213,-0.206,-0.175,-0.125
'0:01.190',-0.061,-0.147,-0.086,0.104,0.013,-0.117,0.000,-0.194,-0.216,-0.209,-0.178,-0.125
'0:01.191',-0.062,-0.147,-0.084,0.105,0.011,-0.116,0.000,-0.194,-0.213,-0.206,-0.181,-0.125
'0:01.192',-0.066,-0.147,-0.081,0.106,0.008,-0.114,-0.003,-0.194,-0.219,-0.206,-0.181,-0.131
'0:01.193',-0.069,-0.147,-0.078,0.108,0.004,-0.112,-0.006,-0.194,-0.219,-0.206,-0.181,-0.138
'0:01.194',-0.064,-0.147,-0.082,0.106,0.009,-0.115,-0.006,-0.197,-0.213,-0.203,-0.178,-0.131
'0:01.195',-0.056,-0.147,-0.091,0.102,0.017,-0.119,-0.006,-0.200,-0.213,-0.200,-0.175,-0.131
'0:01.196',-0.057,-0.147,-0.089,0.102,0.016,-0.118,-0.006,-0.203,-0.213,-0.206,-0.178,-0.138
'0:01.197',-0.053,-0.150,-0.097,0.102,0.022,-0.124,-0.006,-0.200,-0.219,-0.206,-0.181,-0.138
'0:01.198',-0.057,-0.150,-0.092,0.104,0.018,-0.121,-0.003,-0.203,-0.216,-0.206,-0.178,-0.131
'0:01.199',-0.059,-0.150,-0.091,0.105,0.016,-0.121,0.000,-0.200,-0.213,-0.200,-0.175,-0.131
'0:01.200',-0.061,-0.149,-0.088,0.105,0.014,-0.119,-0.003,-0.206,-0.216,-0.200,-0.175,-0.131
'0:01.201',-0.066,-0.147,-0.081,0.106,0.008,-0.114,-0.006,-0.206,-0.213,-0.200,-0.175,-0.131
'0:01.202',-0.073,-0.147,-0.074,0.110,0.000,-0.111,-0.006,-0.203,-0.213,-0.200,-0.172,-0.131
'0:01.203',-0.075,-0.147,-0.072,0.111,-0.002,-0.109,-0.006,-0.206,-0.213,-0.200,-0.175,-0.131
'0:01.204',-0.079,-0.142,-0.063,0.111,-0.008,-0.103,-0.003,-0.206,-0.216,-0.200,-0.178,-0.131
'0:01.205',-0.075,-0.141,-0.066,0.108,-0.005,-0.103,0.000,-0.206,-0.219,-0.200,-0.181,-0.131
'0:01.206',-0.079,-0.142,-0.062,0.111,-0.009,-0.103,0.000,-0.203,-0.216,-0.203,-0.175,-0.125
'0:01.207',-0.084,-0.147,-0.062,0.116,-0.011,-0.105,0.000,-0.200,-0.213,-0.206,-0.169,-0.119
'0:01.208',-0.086,-0.148,-0.062,0.117,-0.012,-0.106,0.006,-0.191,-0.213,-0.203,-0.175,-0.119
'0:01.209',-0.084,-0.147,-0.062,0.116,-0.011,-0.105,0.000,-0.194,-0.213,-0.200,-0.175,-0.119
'0:01.210',-0.082,-0.147,-0.064,0.115,-0.009,-0.106,-0.003,-0.191,-0.209,-0.197,-0.178,-0.116
'0:01.211',-0.084,-0.147,-0.062,0.116,-0.011,-0.105,-0.006,-0.194,-0.213,-0.200,-0.181,-0.113
'0:01.212',-0.078,-0.142,-0.064,0.111,-0.007,-0.104,-0.006,-0.194,-0.216,-0.200,-0.175,-0.119
'0:01.213',-0.075,-0.141,-0.066,0.108,-0.005,-0.103,-0.006,-0.194,-0.219,-0.200,-0.175,-0.125
'0:01.214',-0.076,-0.142,-0.066,0.109,-0.006,-0.104,-0.003,-0.194,-0.219,-0.203,-0.181,-0.125
'0:01.215',-0.078,-0.144,-0.066,0.111,-0.006,-0.105,0.000,-0.194,-0.219,-0.206,-0.181,-0.125
'0:01.216',-0.075,-0.144,-0.069,0.109,-0.003,-0.106,0.000,-0.191,-0.213,-0.203,-0.169,-0.122
'0:01.217',-0.078,-0.144,-0.066,0.111,-0.006,-0.105,0.000,-0.188,-0.206,-0.200,-0.169,-0.125
'0:01.218',-0.077,-0.146,-0.069,0.111,-0.004,-0.108,0.006,-0.188,-0.206,-0.200,-0.169,-0.122
'0:01.219',-0.075,-0.147,-0.072,0.111,-0.002,-0.109,0.006,-0.188,-0.206,-0.206,-0.169,-0.119
'0:01.220',-0.075,-0.154,-0.079,0.115,0.002,-0.117,0.016,-0.184,-0.206,-0.206,-0.175,-0.131
'0:01.221',-0.075,-0.166,-0.091,0.121,0.008,-0.128,0.025,-0.181,-0.206,-0.206,-0.175,-0.144
'0:01.222',-0.079,-0.172,-0.092,0.126,0.006,-0.133,0.034,-0.175,-0.206,-0.209,-0.191,-0.147
'0:01.223',-0.081,-0.184,-0.103,0.133,0.011,-0.144,0.044,-0.163,-0.206,-0.219,-0.200,-0.163
'0:01.224',-0.083,-0.189,-0.106,0.136,0.011,-0.148,0.059,-0.147,-0.213,-0.231,-0.209,-0.175
'0:01.225',-0.081,-0.197,-0.116,0.139,0.017,-0.156,0.075,-0.138,-0.213,-0.244,-0.219,-0.181
'0:01.226',-0.075,-0.199,-0.124,0.137,0.024,-0.161,0.094,-0.131,-0.216,-0.250,-0.231,-0.194
'0:01.227',-0.069,-0.203,-0.134,0.136,0.033,-0.169,0.112,-0.119,-0.219,-0.250,-0.238,-0.200
'0:01.228',-0.069,-0.202,-0.133,0.136,0.032,-0.168,0.122,-0.113,-0.219,-0.263,-0.244,-0.203
'0:01.229',-0.066,-0.197,-0.131,0.131,0.033,-0.164,0.131,-0.100,-0.219,-0.269,-0.250,-0.213
'0:01.230',-0.069,-0.195,-0.126,0.132,0.029,-0.161,0.147,-0.081,-0.209,-0.266,-0.253,-0.213
'0:01.231',-0.069,-0.191,-0.122,0.130,0.026,-0.156,0.156,-0.069,-0.206,-0.263,-0.250,-0.219
'0:01.232',-0.061,-0.184,-0.123,0.123,0.031,-0.154,0.159,-0.050,-0.191,-0.256,-0.253,-0.219
'0:01.233',-0.047,-0.172,-0.125,0.109,0.039,-0.149,0.156,-0.025,-0.175,-0.244,-0.250,-0.219
'0:01.234',-0.041,-0.158,-0.117,0.099,0.038,-0.138,0.162,0.003,-0.150,-0.228,-0.231,-0.200
'0:01.235',-0.034,-0.134,-0.100,0.084,0.033,-0.118,0.162,0.031,-0.125,-0.200,-0.206,-0.181
'0:01.236',-0.030,-0.102,-0.072,0.066,0.021,-0.087,0.166,0.044,-0.103,-0.178,-0.178,-0.163
'0:01.237',-0.025,-0.059,-0.034,0.042,0.004,-0.047,0.169,0.056,-0.075,-0.144,-0.150,-0.131
'0:01.238',-0.019,-0.011,0.008,0.015,-0.013,-0.002,0.166,0.072,-0.044,-0.106,-0.109,-0.103
'0:01.239',-0.016,0.038,0.053,-0.011,-0.034,0.045,0.169,0.088,-0.006,-0.056,-0.069,-0.063
'0:01.240',-0.008,0.092,0.100,-0.042,-0.054,0.096,0.156,0.109,0.034,-0.003,-0.025,-0.019
'0:01.241',0.006,0.153,0.147,-0.079,-0.071,0.150,0.137,0.131,0.081,0.050,0.025,0.019
'0:01.242',0.022,0.211,0.189,-0.116,-0.084,0.199,0.125,0.159,0.131,0.106,0.087,0.072
'0:01.243',0.044,0.269,0.225,-0.156,-0.091,0.247,0.106,0.194,0.188,0.175,0.150,0.125
'0:01.244',0.059,0.329,0.270,-0.194,-0.106,0.299,0.084,0.231,0.250,0.247,0.219,0.187
'0:01.245',0.075,0.394,0.319,-0.234,-0.122,0.356,0.056,0.269,0.319,0.325,0.287,0.250
'0:01.246',0.088,0.456,0.369,-0.272,-0.141,0.412,0.037,0.303,0.388,0.412,0.369,0.316
'0:01.247',0.103,0.525,0.422,-0.314,-0.159,0.473,0.019,0.344,0.469,0.500,0.456,0.394
'0:01.248',0.125,0.601,0.476,-0.363,-0.176,0.539,-0.003,0.403,0.553,0.591,0.544,0.466
'0:01.249',0.147,0.675,0.528,-0.411,-0.191,0.601,-0.025,0.469,0.656,0.700,0.644,0.544
'0:01.250',0.168,0.754,0.587,-0.461,-0.210,0.671,-0.050,0.534,0.759,0.813,0.750,0.628
'0:01.251',0.194,0.841,0.647,-0.517,-0.227,0.744,-0.088,0.606,0.875,0.931,0.863,0.719
'0:01.252',0.223,0.936,0.713,-0.579,-0.245,0.824,-0.122,0.659,0.984,1.062,0.981,0.819
'0:01.253',0.256,1.044,0.788,-0.650,-0.266,0.916,-0.163,0.719,1.100,1.187,1.100,0.919
'0:01.254',0.278,1.144,0.866,-0.711,-0.294,1.004,-0.200,0.753,1.212,1.303,1.209,1.012
'0:01.255',0.300,1.241,0.941,-0.770,-0.321,1.091,-0.244,0.781,1.319,1.425,1.319,1.106
'0:01.256',0.319,1.316,0.997,-0.817,-0.339,1.156,-0.278,0.809,1.416,1.544,1.422,1.178
'0:01.257',0.334,1.391,1.056,-0.863,-0.361,1.223,-0.319,0.831,1.506,1.650,1.512,1.244
'0:01.258',0.343,1.441,1.098,-0.891,-0.378,1.269,-0.344,0.837,1.584,1.744,1.588,1.297
'0:01.259',0.344,1.469,1.125,-0.906,-0.391,1.297,-0.363,0.844,1.662,1.825,1.650,1.337
'0:01.260',0.338,1.497,1.159,-0.917,-0.411,1.328,-0.378,0.856,1.728,1.903,1.700,1.369
'0:01.261',0.331,1.525,1.194,-0.928,-0.431,1.359,-0.394,0.862,1.787,1.969,1.756,1.394
'0:01.262',0.314,1.559,1.245,-0.937,-0.466,1.402,-0.403,0.866,1.847,2.034,1.791,1.422
'0:01.263',0.297,1.591,1.294,-0.944,-0.499,1.442,-0.413,0.862,1.900,2.094,1.825,1.444
'0:01.264',0.278,1.577,1.299,-0.927,-0.511,1.437,-0.419,0.862,1.941,2.137,1.844,1.441
'0:01.265',0.256,1.537,1.281,-0.897,-0.512,1.409,-0.419,0.856,1.975,2.150,1.837,1.419
'0:01.266',0.234,1.472,1.238,-0.853,-0.502,1.354,-0.413,0.834,1.987,2.159,1.822,1.381
'0:01.267',0.219,1.369,1.150,-0.794,-0.466,1.259,-0.413,0.819,1.994,2.150,1.781,1.325
'0:01.268',0.206,1.266,1.059,-0.736,-0.427,1.162,-0.434,0.766,1.981,2.122,1.728,1.269
'0:01.269',0.194,1.166,0.972,-0.679,-0.389,1.069,-0.456,0.700,1.956,2.087,1.669,1.212
'0:01.270',0.189,1.078,0.889,-0.633,-0.351,0.984,-0.491,0.631,1.922,2.044,1.609,1.150
'0:01.271',0.188,0.991,0.803,-0.589,-0.308,0.897,-0.519,0.556,1.881,2.000,1.544,1.087
'0:01.272',0.186,0.916,0.730,-0.551,-0.272,0.822,-0.544,0.494,1.831,1.941,1.487,1.031
'0:01.273',0.184,0.859,0.675,-0.522,-0.246,0.767,-0.569,0.431,1.781,1.888,1.425,0.975
'0:01.274',0.175,0.796,0.621,-0.485,-0.223,0.708,-0.575,0.356,1.716,1.816,1.350,0.912
'0:01.275',0.159,0.734,0.575,-0.447,-0.208,0.654,-0.588,0.275,1.612,1.712,1.250,0.844
'0:01.276',0.144,0.655,0.511,-0.399,-0.184,0.583,-0.591,0.191,1.500,1.584,1.134,0.756
'0:01.277',0.119,0.562,0.444,-0.341,-0.162,0.503,-0.588,0.113,1.375,1.437,1.012,0.669
'0:01.278',0.099,0.466,0.367,-0.282,-0.134,0.416,-0.572,0.038,1.241,1.284,0.881,0.575
'0:01.279',0.081,0.350,0.269,-0.216,-0.094,0.309,-0.550,-0.006,1.112,1.119,0.744,0.475
'0:01.280',0.064,0.239,0.174,-0.151,-0.055,0.206,-0.525,-0.056,0.969,0.941,0.606,0.375
'0:01.281',0.047,0.134,0.088,-0.091,-0.021,0.111,-0.500,-0.106,0.819,0.756,0.462,0.275
'0:01.282',0.027,0.048,0.021,-0.038,0.003,0.034,-0.472,-0.166,0.663,0.578,0.331,0.197
'0:01.283',0.003,-0.025,-0.028,0.011,0.016,-0.027,-0.444,-0.231,0.500,0.419,0.219,0.131
'0:01.284',-0.012,-0.080,-0.067,0.046,0.028,-0.074,-0.422,-0.313,0.328,0.259,0.109,0.062
'0:01.285',-0.034,-0.125,-0.091,0.080,0.028,-0.108,-0.400,-0.394,0.144,0.112,0.006,0.006
'0:01.286',-0.049,-0.163,-0.114,0.106,0.033,-0.138,-0.384,-0.487,-0.022,-0.006,-0.072,-0.044
'0:01.287',-0.056,-0.191,-0.134,0.124,0.039,-0.163,-0.381,-0.569,-0.169,-0.113,-0.137,-0.081
'0:01.288',-0.056,-0.209,-0.153,0.133,0.048,-0.181,-0.372,-0.609,-0.269,-0.175,-0.181,-0.113
'0:01.289',-0.053,-0.222,-0.169,0.137,0.058,-0.196,-0.369,-0.625,-0.313,-0.206,-0.206,-0.125
'0:01.290',-0.051,-0.231,-0.180,0.141,0.064,-0.206,-0.356,-0.622,-0.331,-0.222,-0.209,-0.141
'0:01.291',-0.053,-0.228,-0.175,0.141,0.061,-0.202,-0.344,-0.594,-0.331,-0.225,-0.213,-0.138
'0:01.292',-0.054,-0.225,-0.171,0.140,0.058,-0.198,-0.325,-0.569,-0.322,-0.212,-0.209,-0.141
'0:01.293',-0.056,-0.216,-0.159,0.136,0.051,-0.188,-0.300,-0.537,-0.300,-0.206,-0.200,-0.138
'0:01.294',-0.056,-0.211,-0.154,0.134,0.049,-0.183,-0.272,-0.497,-0.291,-0.194,-0.188,-0.134
'0:01.295',-0.056,-0.200,-0.144,0.128,0.044,-0.172,-0.250,-0.462,-0.281,-0.181,-0.181,-0.125
'0:01.296',-0.053,-0.187,-0.134,0.121,0.041,-0.161,-0.222,-0.428,-0.259,-0.172,-0.169,-0.119
'0:01.297',-0.056,-0.178,-0.122,0.118,0.033,-0.150,-0.200,-0.394,-0.250,-0.169,-0.162,-0.119
'0:01.298',-0.054,-0.178,-0.124,0.116,0.034,-0.151,-0.175,-0.363,-0.241,-0.166,-0.159,-0.116
'0:01.299',-0.056,-0.175,-0.119,0.116,0.031,-0.147,-0.150,-0.331,-0.225,-0.169,-0.156,-0.113
'0:01.300',-0.053,-0.175,-0.122,0.114,0.034,-0.149,-0.131,-0.300,-0.216,-0.169,-0.150,-0.113
'0:01.301',-0.053,-0.169,-0.116,0.111,0.031,-0.143,-0.113,-0.269,-0.200,-0.169,-0.144,-0.106
'0:01.302',-0.044,-0.155,-0.111,0.099,0.034,-0.133,-0.100,-0.247,-0.197,-0.166,-0.147,-0.113
'0:01.303',-0.031,-0.141,-0.109,0.086,0.039,-0.125,-0.094,-0.231,-0.188,-0.169,-0.144,-0.106
'0:01.304',-0.034,-0.133,-0.098,0.084,0.032,-0.116,-0.081,-0.216,-0.172,-0.163,-0.141,-0.103
