'Elapsed time','I','II','III','AVR','AVL','AVF','V1','V2','V3','V4','V5','V6'
'hh:mm:ss.mmm','mV','mV','mV','mV','mV','mV','mV','mV','mV','mV','mV','mV'
'0:00.000',-0.033,-0.063,-0.030,0.048,-0.001,-0.046,0.000,-0.103,-0.153,-0.147,-0.106,-0.084
'0:00.001',0.016,0.041,0.025,-0.028,-0.005,0.033,0.013,0.081,0.019,0.000,-0.006,-0.006
'0:00.002',0.019,0.041,0.022,-0.029,-0.002,0.031,0.013,0.072,0.016,-0.006,-0.009,-0.006
'0:00.003',0.022,0.044,0.022,-0.032,0.000,0.033,0.013,0.063,0.013,-0.012,-0.019,-0.012
'0:00.004',0.014,0.039,0.025,-0.027,-0.006,0.032,0.019,0.063,0.009,-0.016,-0.013,-0.012
'0:00.005',0.006,0.034,0.028,-0.020,-0.011,0.031,0.025,0.056,0.006,-0.019,-0.013,-0.019
'0:00.006',0.003,0.028,0.025,-0.016,-0.011,0.026,0.025,0.053,-0.009,-0.022,-0.022,-0.019
'0:00.007',0.003,0.025,0.022,-0.014,-0.009,0.023,0.025,0.044,-0.019,-0.025,-0.025,-0.025
'0:00.008',0.003,0.024,0.021,-0.013,-0.009,0.022,0.025,0.038,-0.012,-0.031,-0.028,-0.025
'0:00.009',0.003,0.019,0.016,-0.011,-0.006,0.017,0.031,0.031,-0.019,-0.037,-0.025,-0.025
'0:00.010',-0.004,0.019,0.023,-0.007,-0.014,0.021,0.031,0.022,-0.022,-0.047,-0.028,-0.028
'0:00.011',-0.009,0.012,0.022,-0.001,-0.016,0.017,0.031,0.013,-0.025,-0.050,-0.025,-0.025
'0:00.012',-0.016,0.012,0.028,0.002,-0.022,0.020,0.028,0.006,-0.034,-0.053,-0.031,-0.034
'0:00.013',-0.016,0.006,0.022,0.005,-0.019,0.014,0.031,0.000,-0.044,-0.056,-0.031,-0.031
'0:00.014',-0.013,0.004,0.017,0.004,-0.015,0.011,0.041,-0.003,-0.047,-0.063,-0.038,-0.031
'0:00.015',-0.013,0.003,0.016,0.005,-0.014,0.009,0.038,-0.006,-0.050,-0.069,-0.044,-0.031
'0:00.016',-0.013,-0.006,0.006,0.009,-0.009,0.000,0.041,-0.016,-0.059,-0.075,-0.047,-0.034
'0:00.017',-0.013,-0.009,0.003,0.011,-0.008,-0.003,0.038,-0.019,-0.062,-0.081,-0.056,-0.044
'0:00.018',-0.014,-0.017,-0.002,0.016,-0.006,-0.010,0.031,-0.025,-0.072,-0.084,-0.056,-0.044
'0:00.019',-0.016,-0.016,0.000,0.016,-0.008,-0.008,0.031,-0.038,-0.075,-0.088,-0.063,-0.044
'0:00.020',-0.014,-0.019,-0.005,0.016,-0.004,-0.012,0.031,-0.038,-0.078,-0.084,-0.059,-0.047
'0:00.021',-0.019,-0.025,-0.006,0.022,-0.006,-0.016,0.031,-0.044,-0.081,-0.088,-0.063,-0.044
'0:00.022',-0.026,-0.029,-0.003,0.028,-0.012,-0.016,0.034,-0.044,-0.084,-0.094,-0.066,-0.053
'0:00.023',-0.028,-0.031,-0.003,0.030,-0.013,-0.017,0.031,-0.044,-0.081,-0.094,-0.063,-0.056
'0:00.024',-0.028,-0.031,-0.003,0.030,-0.013,-0.017,0.028,-0.053,-0.094,-0.097,-0.066,-0.062
'0:00.025',-0.028,-0.031,-0.003,0.030,-0.013,-0.017,0.031,-0.050,-0.094,-0.100,-0.069,-0.056
'0:00.026',-0.027,-0.033,-0.006,0.030,-0.011,-0.020,0.028,-0.053,-0.097,-0.100,-0.069,-0.062
'0:00.027',-0.028,-0.034,-0.006,0.031,-0.011,-0.021,0.025,-0.056,-0.094,-0.106,-0.069,-0.062
'0:00.028',-0.025,-0.030,-0.005,0.027,-0.010,-0.017,0.025,-0.063,-0.097,-0.116,-0.072,-0.059
'0:00.029',-0.022,-0.028,-0.006,0.025,-0.008,-0.017,0.025,-0.069,-0.100,-0.119,-0.075,-0.056
'0:00.030',-0.023,-0.031,-0.008,0.027,-0.007,-0.020,0.031,-0.069,-0.100,-0.116,-0.075,-0.062
'0:00.031',-0.028,-0.031,-0.003,0.030,-0.013,-0.017,0.031,-0.075,-0.106,-0.119,-0.081,-0.062
'0:00.032',-0.029,-0.034,-0.005,0.032,-0.013,-0.020,0.028,-0.081,-0.113,-0.122,-0.078,-0.059
'0:00.033',-0.034,-0.037,-0.003,0.036,-0.016,-0.021,0.025,-0.081,-0.113,-0.119,-0.081,-0.062
'0:00.034',-0.036,-0.034,0.002,0.036,-0.019,-0.016,0.031,-0.084,-0.116,-0.125,-0.081,-0.062
'0:00.035',-0.034,-0.034,0.000,0.034,-0.018,-0.017,0.031,-0.081,-0.119,-0.125,-0.081,-0.062
'0:00.036',-0.031,-0.034,-0.003,0.033,-0.014,-0.019,0.025,-0.084,-0.119,-0.122,-0.078,-0.062
'0:00.037',-0.031,-0.034,-0.003,0.033,-0.014,-0.019,0.025,-0.081,-0.119,-0.119,-0.075,-0.062
'0:00.038',-0.034,-0.037,-0.003,0.036,-0.016,-0.021,0.025,-0.084,-0.122,-0.122,-0.078,-0.059
'0:00.039',-0.031,-0.037,-0.006,0.034,-0.013,-0.022,0.025,-0.081,-0.119,-0.119,-0.081,-0.062
'0:00.040',-0.028,-0.034,-0.006,0.031,-0.011,-0.021,0.031,-0.084,-0.122,-0.125,-0.081,-0.062
'0:00.041',-0.028,-0.034,-0.006,0.031,-0.011,-0.021,0.031,-0.088,-0.119,-0.125,-0.081,-0.062
'0:00.042',-0.033,-0.044,-0.011,0.038,-0.011,-0.027,0.028,-0.091,-0.122,-0.122,-0.081,-0.062
'0:00.043',-0.037,-0.047,-0.009,0.043,-0.014,-0.028,0.031,-0.094,-0.119,-0.125,-0.081,-0.062
'0:00.044',-0.036,-0.048,-0.012,0.042,-0.012,-0.031,0.031,-0.097,-0.122,-0.125,-0.078,-0.059
'0:00.045',-0.034,-0.050,-0.016,0.043,-0.009,-0.033,0.031,-0.094,-0.119,-0.125,-0.081,-0.062
'0:00.046',-0.037,-0.051,-0.014,0.044,-0.012,-0.032,0.034,-0.097,-0.119,-0.128,-0.084,-0.062
'0:00.047',-0.041,-0.056,-0.016,0.049,-0.013,-0.036,0.038,-0.100,-0.119,-0.125,-0.088,-0.062
'0:00.048',-0.045,-0.057,-0.012,0.051,-0.016,-0.035,0.038,-0.100,-0.125,-0.122,-0.088,-0.062
'0:00.049',-0.050,-0.063,-0.012,0.056,-0.019,-0.037,0.038,-0.100,-0.125,-0.125,-0.088,-0.062
'0:00.050',-0.049,-0.059,-0.011,0.054,-0.019,-0.035,0.041,-0.097,-0.131,-0.128,-0.084,-0.072
'0:00.051',-0.047,-0.056,-0.009,0.052,-0.019,-0.033,0.044,-0.094,-0.131,-0.131,-0.081,-0.069
'0:00.052',-0.042,-0.055,-0.012,0.049,-0.015,-0.034,0.034,-0.100,-0.134,-0.134,-0.084,-0.072
'0:00.053',-0.041,-0.053,-0.012,0.047,-0.014,-0.033,0.038,-0.100,-0.138,-0.138,-0.081,-0.069
'0:00.054',-0.039,-0.057,-0.018,0.049,-0.011,-0.038,0.034,-0.100,-0.134,-0.134,-0.084,-0.066
'0:00.055',-0.037,-0.056,-0.019,0.047,-0.009,-0.037,0.031,-0.100,-0.131,-0.138,-0.088,-0.069
'0:00.056',-0.034,-0.053,-0.019,0.044,-0.008,-0.036,0.034,-0.103,-0.138,-0.138,-0.088,-0.072
'0:00.057',-0.034,-0.053,-0.019,0.044,-0.008,-0.036,0.031,-0.100,-0.138,-0.138,-0.088,-0.069
'0:00.058',-0.034,-0.053,-0.019,0.044,-0.008,-0.036,0.038,-0.100,-0.138,-0.134,-0.088,-0.069
'0:00.059',-0.037,-0.053,-0.016,0.046,-0.011,-0.034,0.038,-0.100,-0.138,-0.131,-0.094,-0.069
'0:00.060',-0.036,-0.050,-0.014,0.043,-0.011,-0.032,0.034,-0.097,-0.138,-0.134,-0.091,-0.069
'0:00.061',-0.034,-0.047,-0.012,0.041,-0.011,-0.030,0.031,-0.100,-0.138,-0.138,-0.094,-0.069
'0:00.062',-0.036,-0.047,-0.011,0.041,-0.013,-0.029,0.031,-0.100,-0.144,-0.138,-0.094,-0.066
'0:00.063',-0.037,-0.047,-0.009,0.043,-0.014,-0.028,0.031,-0.100,-0.138,-0.138,-0.094,-0.062
'0:00.064',-0.033,-0.047,-0.014,0.040,-0.010,-0.031,0.028,-0.103,-0.138,-0.134,-0.100,-0.072
'0:00.065',-0.034,-0.047,-0.012,0.041,-0.011,-0.030,0.031,-0.100,-0.138,-0.131,-0.094,-0.069
'0:00.066',-0.039,-0.050,-0.011,0.044,-0.014,-0.031,0.038,-0.097,-0.144,-0.138,-0.094,-0.069
'0:00.067',-0.041,-0.050,-0.009,0.046,-0.016,-0.030,0.038,-0.100,-0.138,-0.138,-0.094,-0.069
'0:00.068',-0.041,-0.046,-0.005,0.043,-0.018,-0.026,0.038,-0.100,-0.138,-0.138,-0.103,-0.069
'0:00.069',-0.041,-0.044,-0.003,0.043,-0.019,-0.024,0.038,-0.100,-0.138,-0.138,-0.100,-0.069
'0:00.070',-0.042,-0.043,-0.001,0.043,-0.021,-0.022,0.038,-0.100,-0.134,-0.134,-0.097,-0.072
'0:00.071',-0.044,-0.044,0.000,0.044,-0.022,-0.022,0.038,-0.100,-0.138,-0.131,-0.100,-0.075
'0:00.072',-0.042,-0.041,0.002,0.042,-0.022,-0.019,0.034,-0.103,-0.138,-0.144,-0.100,-0.081
'0:00.073',-0.037,-0.044,-0.006,0.041,-0.016,-0.025,0.031,-0.106,-0.138,-0.144,-0.100,-0.081
'0:00.074',-0.039,-0.044,-0.004,0.042,-0.018,-0.024,0.031,-0.097,-0.138,-0.138,-0.094,-0.081
'0:00.075',-0.037,-0.044,-0.006,0.041,-0.016,-0.025,0.031,-0.100,-0.138,-0.144,-0.100,-0.081
'0:00.076',-0.034,-0.044,-0.009,0.039,-0.013,-0.027,0.025,-0.100,-0.134,-0.141,-0.097,-0.081
'0:00.077',-0.034,-0.044,-0.009,0.039,-0.013,-0.027,0.025,-0.100,-0.131,-0.138,-0.094,-0.081
'0:00.078',-0.034,-0.043,-0.008,0.039,-0.013,-0.026,0.025,-0.100,-0.131,-0.134,-0.094,-0.081
'0:00.079',-0.034,-0.041,-0.006,0.038,-0.014,-0.024,0.019,-0.100,-0.131,-0.131,-0.094,-0.075
'0:00.080',-0.037,-0.048,-0.011,0.043,-0.014,-0.029,0.019,-0.100,-0.134,-0.131,-0.094,-0.081
'0:00.081',-0.037,-0.050,-0.012,0.044,-0.013,-0.031,0.019,-0.100,-0.138,-0.131,-0.094,-0.075
'0:00.082',-0.037,-0.051,-0.014,0.044,-0.012,-0.032,0.019,-0.100,-0.134,-0.138,-0.097,-0.072
'0:00.083',-0.034,-0.053,-0.019,0.044,-0.008,-0.036,0.019,-0.100,-0.131,-0.138,-0.100,-0.075
'0:00.084',-0.041,-0.047,-0.006,0.044,-0.018,-0.027,0.019,-0.100,-0.134,-0.131,-0.097,-0.078
'0:00.085',-0.044,-0.047,-0.003,0.046,-0.021,-0.025,0.019,-0.100,-0.138,-0.138,-0.094,-0.081
'0:00.086',-0.039,-0.041,-0.001,0.040,-0.019,-0.021,0.019,-0.100,-0.134,-0.141,-0.094,-0.078
'0:00.087',-0.031,-0.037,-0.006,0.034,-0.013,-0.022,0.019,-0.100,-0.131,-0.144,-0.094,-0.075
'0:00.088',-0.033,-0.037,-0.004,0.036,-0.014,-0.021,0.019,-0.100,-0.134,-0.138,-0.094,-0.078
'0:00.089',-0.031,-0.037,-0.006,0.034,-0.013,-0.022,0.019,-0.100,-0.138,-0.138,-0.094,-0.081
'0:00.090',-0.028,-0.036,-0.007,0.032,-0.011,-0.022,0.022,-0.100,-0.134,-0.134,-0.094,-0.081
'0:00.091',-0.028,-0.037,-0.009,0.033,-0.009,-0.024,0.025,-0.100,-0.131,-0.131,-0.094,-0.081
'0:00.092',-0.031,-0.039,-0.007,0.035,-0.012,-0.023,0.025,-0.103,-0.131,-0.131,-0.094,-0.081
'0:00.093',-0.031,-0.044,-0.012,0.038,-0.009,-0.028,0.025,-0.100,-0.131,-0.131,-0.094,-0.075
'0:00.094',-0.031,-0.045,-0.014,0.038,-0.009,-0.029,0.025,-0.100,-0.134,-0.131,-0.097,-0.081
'0:00.095',-0.031,-0.047,-0.016,0.039,-0.008,-0.031,0.025,-0.106,-0.131,-0.131,-0.100,-0.081
'0:00.096',-0.031,-0.047,-0.016,0.039,-0.008,-0.031,0.025,-0.109,-0.134,-0.131,-0.100,-0.081
'0:00.097',-0.031,-0.047,-0.016,0.039,-0.008,-0.031,0.025,-0.106,-0.131,-0.131,-0.100,-0.081
'0:00.098',-0.029,-0.047,-0.017,0.038,-0.006,-0.032,0.022,-0.103,-0.134,-0.131,-0.100,-0.081
'0:00.099',-0.031,-0.047,-0.016,0.039,-0.008,-0.031,0.019,-0.106,-0.138,-0.131,-0.100,-0.081
'0:00.100',-0.036,-0.047,-0.011,0.041,-0.013,-0.029,0.022,-0.097,-0.131,-0.131,-0.097,-0.078
'0:00.101',-0.037,-0.047,-0.009,0.043,-0.014,-0.028,0.025,-0.100,-0.131,-0.131,-0.094,-0.075
'0:00.102',-0.041,-0.050,-0.009,0.046,-0.016,-0.030,0.025,-0.103,-0.134,-0.131,-0.097,-0.075
'0:00.103',-0.037,-0.050,-0.012,0.044,-0.013,-0.031,0.025,-0.106,-0.131,-0.131,-0.100,-0.075
'0:00.104',-0.039,-0.050,-0.011,0.044,-0.014,-0.031,0.025,-0.100,-0.134,-0.128,-0.100,-0.075
'0:00.105',-0.041,-0.050,-0.009,0.046,-0.016,-0.030,0.025,-0.100,-0.138,-0.125,-0.100,-0.075
'0:00.106',-0.037,-0.047,-0.009,0.043,-0.014,-0.028,0.025,-0.103,-0.134,-0.128,-0.100,-0.078
'0:00.107',-0.041,-0.047,-0.006,0.044,-0.018,-0.027,0.025,-0.094,-0.131,-0.131,-0.100,-0.081
'0:00.108',-0.036,-0.043,-0.006,0.039,-0.015,-0.024,0.025,-0.100,-0.134,-0.131,-0.100,-0.081
'0:00.109',-0.031,-0.037,-0.006,0.034,-0.013,-0.022,0.025,-0.100,-0.138,-0.131,-0.100,-0.081
'0:00.110',-0.033,-0.039,-0.006,0.036,-0.013,-0.022,0.028,-0.103,-0.134,-0.134,-0.100,-0.081
'0:00.111',-0.034,-0.037,-0.003,0.036,-0.016,-0.021,0.031,-0.100,-0.138,-0.138,-0.100,-0.081
'0:00.112',-0.031,-0.039,-0.007,0.035,-0.012,-0.023,0.031,-0.100,-0.138,-0.138,-0.100,-0.084
'0:00.113',-0.031,-0.041,-0.009,0.036,-0.011,-0.025,0.031,-0.100,-0.138,-0.138,-0.100,-0.088
'0:00.114',-0.031,-0.037,-0.006,0.034,-0.013,-0.022,0.031,-0.103,-0.134,-0.134,-0.100,-0.081
'0:00.115',-0.031,-0.041,-0.009,0.036,-0.011,-0.025,0.031,-0.106,-0.131,-0.138,-0.100,-0.081
'0:00.116',-0.036,-0.041,-0.005,0.038,-0.016,-0.023,0.031,-0.103,-0.131,-0.134,-0.100,-0.078
'0:00.117',-0.037,-0.037,0.000,0.038,-0.019,-0.019,0.031,-0.100,-0.131,-0.131,-0.100,-0.075
'0:00.118',-0.033,-0.041,-0.007,0.037,-0.013,-0.024,0.031,-0.106,-0.138,-0.138,-0.100,-0.081
'0:00.119',-0.031,-0.041,-0.009,0.036,-0.011,-0.025,0.031,-0.106,-0.138,-0.138,-0.100,-0.081
'0:00.120',-0.030,-0.041,-0.011,0.036,-0.010,-0.026,0.031,-0.106,-0.138,-0.138,-0.100,-0.081
'0:00.121',-0.031,-0.041,-0.009,0.036,-0.011,-0.025,0.031,-0.106,-0.138,-0.138,-0.100,-0.081
'0:00.122',-0.033,-0.041,-0.008,0.037,-0.013,-0.024,0.031,-0.106,-0.138,-0.138,-0.100,-0.078
'0:00.123',-0.034,-0.044,-0.009,0.039,-0.013,-0.027,0.038,-0.106,-0.138,-0.138,-0.100,-0.075
'0:00.124',-0.039,-0.051,-0.012,0.045,-0.013,-0.032,0.031,-0.103,-0.144,-0.134,-0.100,-0.075
'0:00.125',-0.047,-0.056,-0.009,0.052,-0.019,-0.033,0.038,-0.106,-0.144,-0.138,-0.100,-0.075
'0:00.126',-0.047,-0.059,-0.012,0.053,-0.018,-0.036,0.034,-0.106,-0.144,-0.138,-0.100,-0.072
'0:00.127',-0.044,-0.056,-0.012,0.050,-0.016,-0.034,0.038,-0.106,-0.144,-0.138,-0.100,-0.069
'0:00.128',-0.037,-0.049,-0.011,0.043,-0.013,-0.030,0.038,-0.106,-0.144,-0.138,-0.100,-0.069
'0:00.129',-0.031,-0.041,-0.009,0.036,-0.011,-0.025,0.038,-0.106,-0.144,-0.138,-0.106,-0.069
'0:00.130',-0.033,-0.039,-0.007,0.036,-0.013,-0.023,0.038,-0.103,-0.141,-0.138,-0.097,-0.072
'0:00.131',-0.031,-0.037,-0.006,0.034,-0.013,-0.022,0.038,-0.106,-0.138,-0.138,-0.100,-0.075
'0:00.132',-0.031,-0.039,-0.008,0.036,-0.012,-0.024,0.034,-0.113,-0.141,-0.138,-0.100,-0.075
'0:00.133',-0.031,-0.041,-0.009,0.036,-0.011,-0.025,0.031,-0.119,-0.144,-0.144,-0.100,-0.075
'0:00.134',-0.034,-0.041,-0.006,0.038,-0.014,-0.024,0.028,-0.122,-0.153,-0.138,-0.100,-0.075
'0:00.135',-0.034,-0.041,-0.006,0.038,-0.014,-0.024,0.031,-0.119,-0.150,-0.138,-0.100,-0.075
'0:00.136',-0.034,-0.042,-0.007,0.038,-0.014,-0.025,0.031,-0.125,-0.150,-0.147,-0.097,-0.081
'0:00.137',-0.034,-0.044,-0.009,0.039,-0.013,-0.027,0.031,-0.125,-0.156,-0.144,-0.106,-0.081
'0:00.138',-0.036,-0.045,-0.009,0.041,-0.013,-0.027,0.025,-0.122,-0.156,-0.141,-0.103,-0.081
'0:00.139',-0.037,-0.047,-0.009,0.043,-0.014,-0.028,0.025,-0.119,-0.156,-0.144,-0.100,-0.081
'0:00.140',-0.039,-0.048,-0.009,0.044,-0.015,-0.029,0.022,-0.125,-0.156,-0.147,-0.103,-0.078
'0:00.141',-0.041,-0.050,-0.009,0.046,-0.016,-0.030,0.019,-0.125,-0.156,-0.150,-0.106,-0.081
'0:00.142',-0.039,-0.050,-0.011,0.045,-0.014,-0.031,0.019,-0.125,-0.153,-0.150,-0.106,-0.078
'0:00.143',-0.034,-0.050,-0.016,0.043,-0.009,-0.033,0.019,-0.125,-0.156,-0.150,-0.113,-0.081
'0:00.144',-0.041,-0.050,-0.009,0.046,-0.016,-0.030,0.019,-0.125,-0.159,-0.150,-0.106,-0.084
'0:00.145',-0.037,-0.050,-0.012,0.044,-0.013,-0.031,0.019,-0.125,-0.163,-0.150,-0.106,-0.088
'0:00.146',-0.034,-0.053,-0.019,0.044,-0.008,-0.036,0.019,-0.125,-0.166,-0.156,-0.106,-0.088
'0:00.147',-0.037,-0.059,-0.022,0.049,-0.008,-0.041,0.019,-0.125,-0.169,-0.156,-0.113,-0.088
'0:00.148',-0.036,-0.058,-0.022,0.048,-0.007,-0.040,0.019,-0.128,-0.166,-0.153,-0.113,-0.088
'0:00.149',-0.034,-0.056,-0.022,0.046,-0.006,-0.039,0.025,-0.125,-0.169,-0.156,-0.113,-0.088
'0:00.150',-0.034,-0.055,-0.021,0.045,-0.007,-0.038,0.025,-0.131,-0.169,-0.159,-0.116,-0.088
'0:00.151',-0.034,-0.056,-0.022,0.046,-0.006,-0.039,0.019,-0.138,-0.169,-0.163,-0.119,-0.088
'0:00.152',-0.034,-0.056,-0.022,0.046,-0.006,-0.039,0.016,-0.134,-0.166,-0.163,-0.119,-0.084
'0:00.153',-0.034,-0.056,-0.022,0.046,-0.006,-0.039,0.019,-0.138,-0.163,-0.163,-0.119,-0.081
'0:00.154',-0.034,-0.056,-0.022,0.046,-0.006,-0.039,0.022,-0.138,-0.163,-0.166,-0.116,-0.081
'0:00.155',-0.034,-0.059,-0.025,0.047,-0.005,-0.042,0.025,-0.138,-0.163,-0.169,-0.113,-0.081
'0:00.156',-0.039,-0.061,-0.022,0.050,-0.009,-0.041,0.025,-0.138,-0.163,-0.166,-0.113,-0.088
'0:00.157',-0.041,-0.066,-0.025,0.053,-0.008,-0.046,0.025,-0.138,-0.163,-0.163,-0.113,-0.088
'0:00.158',-0.041,-0.067,-0.026,0.054,-0.007,-0.047,0.028,-0.134,-0.166,-0.172,-0.116,-0.081
'0:00.159',-0.041,-0.066,-0.025,0.053,-0.008,-0.046,0.025,-0.131,-0.163,-0.169,-0.119,-0.088
'0:00.160',-0.041,-0.069,-0.028,0.055,-0.006,-0.049,0.025,-0.131,-0.159,-0.166,-0.113,-0.081
'0:00.161',-0.041,-0.066,-0.025,0.053,-0.008,-0.046,0.025,-0.131,-0.156,-0.169,-0.113,-0.081
'0:00.162',-0.039,-0.066,-0.026,0.052,-0.007,-0.046,0.022,-0.141,-0.169,-0.169,-0.116,-0.088
'0:00.163',-0.037,-0.066,-0.028,0.052,-0.005,-0.047,0.019,-0.144,-0.169,-0.169,-0.119,-0.088
'0:00.164',-0.034,-0.069,-0.034,0.052,0.000,-0.052,0.022,-0.147,-0.175,-0.169,-0.119,-0.091
'0:00.165',-0.037,-0.069,-0.031,0.053,-0.003,-0.050,0.025,-0.150,-0.175,-0.169,-0.119,-0.094
'0:00.166',-0.036,-0.069,-0.033,0.052,-0.001,-0.051,0.025,-0.150,-0.175,-0.169,-0.119,-0.094
'0:00.167',-0.041,-0.075,-0.034,0.058,-0.003,-0.055,0.025,-0.150,-0.175,-0.175,-0.119,-0.094
'0:00.168',-0.039,-0.072,-0.032,0.056,-0.004,-0.053,0.022,-0.147,-0.178,-0.169,-0.122,-0.097
'0:00.169',-0.037,-0.069,-0.031,0.053,-0.003,-0.050,0.019,-0.144,-0.181,-0.175,-0.125,-0.100
'0:00.170',-0.036,-0.069,-0.032,0.052,-0.002,-0.051,0.019,-0.150,-0.181,-0.169,-0.122,-0.103
'0:00.171',-0.034,-0.066,-0.031,0.050,-0.002,-0.049,0.019,-0.150,-0.181,-0.175,-0.119,-0.106
'0:00.172',-0.036,-0.066,-0.030,0.051,-0.003,-0.048,0.019,-0.150,-0.181,-0.178,-0.125,-0.103
'0:00.173',-0.037,-0.066,-0.028,0.052,-0.005,-0.047,0.019,-0.150,-0.181,-0.181,-0.125,-0.106
'0:00.174',-0.037,-0.067,-0.029,0.052,-0.004,-0.048,0.022,-0.153,-0.184,-0.178,-0.125,-0.109
'0:00.175',-0.037,-0.066,-0.028,0.052,-0.005,-0.047,0.025,-0.150,-0.181,-0.181,-0.125,-0.106
'0:00.176',-0.039,-0.069,-0.030,0.054,-0.004,-0.049,0.025,-0.150,-0.181,-0.181,-0.125,-0.109
'0:00.177',-0.047,-0.072,-0.025,0.059,-0.011,-0.049,0.025,-0.150,-0.181,-0.181,-0.125,-0.100
'0:00.178',-0.047,-0.071,-0.024,0.059,-0.012,-0.047,0.025,-0.153,-0.181,-0.172,-0.128,-0.103
'0:00.179',-0.047,-0.072,-0.025,0.059,-0.011,-0.049,0.019,-0.156,-0.188,-0.175,-0.131,-0.100
'0:00.180',-0.050,-0.074,-0.024,0.062,-0.013,-0.049,0.019,-0.156,-0.184,-0.175,-0.128,-0.100
'0:00.181',-0.050,-0.072,-0.022,0.061,-0.014,-0.047,0.019,-0.156,-0.181,-0.175,-0.125,-0.100
'0:00.182',-0.046,-0.072,-0.026,0.059,-0.010,-0.049,0.025,-0.163,-0.181,-0.175,-0.131,-0.100
'0:00.183',-0.044,-0.075,-0.031,0.059,-0.006,-0.053,0.025,-0.156,-0.181,-0.175,-0.125,-0.100
'0:00.184',-0.045,-0.073,-0.028,0.059,-0.009,-0.051,0.025,-0.163,-0.188,-0.175,-0.131,-0.100
'0:00.185',-0.047,-0.078,-0.031,0.063,-0.008,-0.055,0.019,-0.163,-0.194,-0.175,-0.131,-0.100
'0:00.186',-0.050,-0.078,-0.028,0.064,-0.011,-0.053,0.025,-0.159,-0.197,-0.175,-0.128,-0.100
'0:00.187',-0.050,-0.075,-0.025,0.063,-0.013,-0.050,0.025,-0.156,-0.200,-0.175,-0.125,-0.100
'0:00.188',-0.047,-0.079,-0.032,0.063,-0.007,-0.056,0.022,-0.153,-0.200,-0.181,-0.128,-0.103
'0:00.189',-0.047,-0.081,-0.034,0.064,-0.006,-0.058,0.025,-0.156,-0.200,-0.175,-0.131,-0.106
'0:00.190',-0.049,-0.084,-0.036,0.067,-0.007,-0.060,0.022,-0.150,-0.194,-0.181,-0.131,-0.103
'0:00.191',-0.044,-0.081,-0.037,0.063,-0.003,-0.059,0.019,-0.156,-0.194,-0.181,-0.131,-0.100
'0:00.192',-0.042,-0.086,-0.043,0.064,0.000,-0.064,0.025,-0.156,-0.194,-0.184,-0.131,-0.109
'0:00.193',-0.044,-0.084,-0.041,0.064,-0.002,-0.062,0.025,-0.156,-0.194,-0.187,-0.131,-0.106
'0:00.194',-0.044,-0.086,-0.042,0.065,-0.001,-0.064,0.025,-0.150,-0.191,-0.181,-0.131,-0.106
'0:00.195',-0.041,-0.088,-0.047,0.064,0.003,-0.067,0.025,-0.150,-0.188,-0.181,-0.131,-0.106
'0:00.196',-0.039,-0.084,-0.045,0.062,0.002,-0.065,0.028,-0.153,-0.194,-0.184,-0.131,-0.103
'0:00.197',-0.041,-0.088,-0.047,0.064,0.003,-0.067,0.031,-0.156,-0.200,-0.187,-0.131,-0.100
'0:00.198',-0.044,-0.089,-0.045,0.066,0.001,-0.067,0.028,-0.156,-0.191,-0.184,-0.134,-0.100
'0:00.199',-0.047,-0.088,-0.041,0.068,-0.003,-0.064,0.025,-0.156,-0.188,-0.187,-0.138,-0.100
'0:00.200',-0.045,-0.088,-0.042,0.066,-0.001,-0.065,0.025,-0.156,-0.188,-0.187,-0.128,-0.100
'0:00.201',-0.047,-0.088,-0.041,0.068,-0.003,-0.064,0.025,-0.156,-0.188,-0.187,-0.131,-0.100
'0:00.202',-0.041,-0.080,-0.039,0.061,-0.001,-0.060,0.025,-0.156,-0.184,-0.187,-0.134,-0.097
'0:00.203',-0.034,-0.075,-0.041,0.055,0.003,-0.058,0.025,-0.163,-0.188,-0.187,-0.138,-0.094
'0:00.204',-0.033,-0.078,-0.045,0.056,0.006,-0.062,0.025,-0.166,-0.191,-0.191,-0.138,-0.097
'0:00.205',-0.031,-0.078,-0.047,0.055,0.007,-0.062,0.025,-0.163,-0.194,-0.194,-0.138,-0.100
'0:00.206',-0.028,-0.076,-0.048,0.052,0.010,-0.062,0.022,-0.163,-0.200,-0.191,-0.138,-0.100
'0:00.207',-0.028,-0.075,-0.047,0.052,0.009,-0.061,0.019,-0.163,-0.200,-0.187,-0.138,-0.100
'0:00.208',-0.028,-0.068,-0.039,0.048,0.006,-0.054,0.019,-0.166,-0.197,-0.184,-0.138,-0.100
'0:00.209',-0.025,-0.063,-0.037,0.044,0.006,-0.050,0.019,-0.169,-0.194,-0.187,-0.138,-0.100
'0:00.210',-0.025,-0.063,-0.037,0.044,0.006,-0.050,0.016,-0.159,-0.194,-0.187,-0.131,-0.103
'0:00.211',-0.025,-0.063,-0.037,0.044,0.006,-0.050,0.019,-0.156,-0.188,-0.187,-0.131,-0.100
'0:00.212',-0.026,-0.056,-0.030,0.041,0.002,-0.043,0.019,-0.150,-0.188,-0.178,-0.134,-0.100
'0:00.213',-0.028,-0.050,-0.022,0.039,-0.003,-0.036,0.031,-0.144,-0.181,-0.169,-0.125,-0.094
'0:00.214',-0.028,-0.039,-0.011,0.034,-0.009,-0.025,0.041,-0.141,-0.169,-0.163,-0.116,-0.088
'0:00.215',-0.028,-0.025,0.003,0.027,-0.016,-0.011,0.050,-0.131,-0.163,-0.150,-0.106,-0.081
'0:00.216',-0.027,-0.017,0.010,0.022,-0.019,-0.004,0.059,-0.122,-0.156,-0.150,-0.103,-0.075
'0:00.217',-0.028,-0.009,0.019,0.019,-0.024,0.004,0.069,-0.119,-0.150,-0.144,-0.100,-0.069
'0:00.218',-0.029,-0.003,0.026,0.016,-0.028,0.011,0.069,-0.116,-0.147,-0.134,-0.091,-0.059
'0:00.219',-0.028,0.003,0.031,0.013,-0.030,0.017,0.069,-0.119,-0.138,-0.131,-0.088,-0.056
'0:00.220',-0.024,0.008,0.031,0.008,-0.028,0.019,0.069,-0.113,-0.141,-0.128,-0.084,-0.056
'0:00.221',-0.019,0.012,0.031,0.003,-0.025,0.022,0.075,-0.113,-0.138,-0.131,-0.075,-0.056
'0:00.222',-0.017,0.022,0.039,-0.002,-0.029,0.031,0.075,-0.113,-0.134,-0.128,-0.075,-0.053
'0:00.223',-0.016,0.025,0.041,-0.004,-0.028,0.033,0.075,-0.106,-0.131,-0.125,-0.075,-0.056
'0:00.224',-0.020,0.025,0.045,-0.002,-0.033,0.035,0.072,-0.106,-0.131,-0.128,-0.075,-0.056
'0:00.225',-0.022,0.025,0.047,-0.001,-0.034,0.036,0.075,-0.106,-0.131,-0.131,-0.075,-0.056
'0:00.226',-0.023,0.026,0.049,-0.001,-0.036,0.038,0.075,-0.100,-0.134,-0.131,-0.075,-0.050
'0:00.227',-0.025,0.025,0.050,0.000,-0.038,0.038,0.075,-0.100,-0.138,-0.131,-0.075,-0.050
'0:00.228',-0.025,0.019,0.044,0.003,-0.034,0.031,0.075,-0.103,-0.138,-0.138,-0.084,-0.050
'0:00.229',-0.025,0.009,0.034,0.008,-0.030,0.022,0.075,-0.106,-0.138,-0.138,-0.088,-0.056
'0:00.230',-0.024,0.009,0.033,0.007,-0.029,0.021,0.075,-0.097,-0.144,-0.138,-0.088,-0.062
'0:00.231',-0.019,0.009,0.028,0.005,-0.024,0.019,0.075,-0.100,-0.144,-0.138,-0.088,-0.062
'0:00.232',-0.019,0.006,0.025,0.006,-0.022,0.016,0.075,-0.103,-0.144,-0.141,-0.088,-0.062
'0:00.233',-0.016,0.006,0.022,0.005,-0.019,0.014,0.075,-0.100,-0.138,-0.138,-0.088,-0.062
'0:00.234',-0.017,0.014,0.031,0.002,-0.024,0.022,0.069,-0.100,-0.138,-0.134,-0.081,-0.059
'0:00.235',-0.016,0.022,0.038,-0.003,-0.027,0.029,0.075,-0.094,-0.131,-0.125,-0.081,-0.056
'0:00.236',-0.017,0.025,0.042,-0.004,-0.029,0.033,0.072,-0.097,-0.134,-0.125,-0.078,-0.056
'0:00.237',-0.019,0.031,0.050,-0.006,-0.034,0.041,0.075,-0.094,-0.131,-0.119,-0.075,-0.050
'0:00.238',-0.016,0.039,0.054,-0.011,-0.035,0.046,0.075,-0.100,-0.131,-0.119,-0.075,-0.047
'0:00.239',-0.016,0.050,0.066,-0.017,-0.041,0.058,0.075,-0.094,-0.125,-0.112,-0.069,-0.037
'0:00.240',-0.013,0.063,0.075,-0.025,-0.044,0.069,0.072,-0.094,-0.122,-0.112,-0.056,-0.037
'0:00.241',-0.013,0.072,0.084,-0.029,-0.049,0.078,0.069,-0.088,-0.113,-0.106,-0.050,-0.031
'0:00.242',-0.013,0.086,0.098,-0.036,-0.056,0.092,0.072,-0.088,-0.113,-0.106,-0.047,-0.028
'0:00.243',-0.013,0.097,0.109,-0.042,-0.061,0.103,0.075,-0.088,-0.113,-0.100,-0.044,-0.025
'0:00.244',-0.013,0.099,0.111,-0.043,-0.062,0.105,0.072,-0.084,-0.109,-0.097,-0.041,-0.022
'0:00.245',-0.013,0.100,0.113,-0.044,-0.062,0.106,0.069,-0.088,-0.106,-0.094,-0.038,-0.012
'0:00.246',-0.014,0.105,0.119,-0.046,-0.066,0.112,0.069,-0.088,-0.109,-0.097,-0.034,-0.009
'0:00.247',-0.016,0.109,0.125,-0.047,-0.071,0.117,0.069,-0.081,-0.106,-0.094,-0.038,0.000
'0:00.248',-0.009,0.117,0.126,-0.054,-0.068,0.121,0.069,-0.084,-0.106,-0.094,-0.034,0.000
'0:00.249',-0.006,0.119,0.125,-0.056,-0.066,0.122,0.063,-0.081,-0.106,-0.094,-0.031,0.000
'0:00.250',-0.006,0.116,0.122,-0.054,-0.064,0.119,0.063,-0.081,-0.103,-0.094,-0.031,-0.003
'0:00.251',-0.009,0.113,0.122,-0.051,-0.066,0.117,0.063,-0.088,-0.106,-0.094,-0.031,-0.006
'0:00.252',-0.007,0.108,0.116,-0.050,-0.062,0.112,0.063,-0.084,-0.106,-0.097,-0.028,-0.006
'0:00.253',-0.009,0.109,0.119,-0.050,-0.064,0.114,0.056,-0.081,-0.106,-0.088,-0.025,-0.006
'0:00.254',-0.003,0.114,0.117,-0.055,-0.060,0.115,0.053,-0.088,-0.106,-0.091,-0.022,0.000
'0:00.255',0.003,0.122,0.119,-0.063,-0.058,0.120,0.050,-0.088,-0.100,-0.094,-0.025,0.000
'0:00.256',0.002,0.129,0.128,-0.066,-0.063,0.128,0.047,-0.081,-0.100,-0.091,-0.019,0.006
'0:00.257',0.003,0.134,0.131,-0.069,-0.064,0.133,0.050,-0.081,-0.094,-0.094,-0.019,0.006
'0:00.258',0.002,0.133,0.131,-0.067,-0.065,0.132,0.047,-0.081,-0.097,-0.088,-0.016,0.009
'0:00.259',0.003,0.134,0.131,-0.069,-0.064,0.133,0.050,-0.081,-0.094,-0.088,-0.013,0.012
'0:00.260',0.009,0.134,0.125,-0.072,-0.058,0.129,0.050,-0.075,-0.094,-0.084,-0.013,0.012
'0:00.261',0.009,0.134,0.125,-0.072,-0.058,0.129,0.050,-0.075,-0.094,-0.081,-0.019,0.012
'0:00.262',0.006,0.130,0.124,-0.068,-0.059,0.127,0.047,-0.075,-0.084,-0.075,-0.016,0.019
'0:00.263',0.003,0.122,0.119,-0.063,-0.058,0.120,0.044,-0.075,-0.081,-0.075,-0.013,0.019
'0:00.264',0.003,0.114,0.111,-0.059,-0.054,0.113,0.050,-0.075,-0.084,-0.072,-0.013,0.019
'0:00.265',0.003,0.109,0.106,-0.056,-0.052,0.107,0.050,-0.075,-0.081,-0.069,-0.013,0.012
'0:00.266',0.003,0.108,0.104,-0.055,-0.051,0.106,0.050,-0.072,-0.084,-0.075,-0.016,0.019
'0:00.267',0.003,0.109,0.106,-0.056,-0.052,0.107,0.050,-0.069,-0.088,-0.069,-0.019,0.012
'0:00.268',0.006,0.109,0.103,-0.058,-0.049,0.106,0.050,-0.075,-0.081,-0.075,-0.016,0.019
'0:00.269',0.006,0.109,0.103,-0.058,-0.049,0.106,0.050,-0.075,-0.075,-0.075,-0.013,0.019
'0:00.270',0.004,0.109,0.105,-0.057,-0.051,0.107,0.050,-0.072,-0.081,-0.075,-0.013,0.022
'0:00.271',0.003,0.106,0.103,-0.054,-0.050,0.104,0.050,-0.069,-0.081,-0.075,-0.019,0.019
'0:00.272',0.002,0.108,0.106,-0.054,-0.052,0.106,0.047,-0.078,-0.081,-0.072,-0.016,0.022
'0:00.273',0.000,0.103,0.103,-0.051,-0.052,0.103,0.044,-0.081,-0.088,-0.075,-0.019,0.019
'0:00.274',-0.005,0.101,0.106,-0.048,-0.056,0.104,0.044,-0.088,-0.094,-0.078,-0.022,0.016
'0:00.275',-0.006,0.094,0.100,-0.044,-0.053,0.097,0.044,-0.094,-0.094,-0.081,-0.019,0.012
'0:00.276',-0.006,0.079,0.086,-0.036,-0.046,0.083,0.044,-0.091,-0.100,-0.091,-0.022,0.009
'0:00.277',-0.006,0.072,0.078,-0.032,-0.043,0.075,0.044,-0.094,-0.106,-0.094,-0.031,-0.006
'0:00.278',-0.009,0.058,0.068,-0.024,-0.039,0.063,0.044,-0.097,-0.109,-0.097,-0.038,-0.009
'0:00.279',-0.016,0.044,0.059,-0.014,-0.038,0.051,0.038,-0.100,-0.113,-0.100,-0.044,-0.012
'0:00.280',-0.026,0.028,0.054,-0.001,-0.041,0.041,0.038,-0.109,-0.119,-0.106,-0.050,-0.019
'0:00.281',-0.034,0.016,0.050,0.009,-0.043,0.033,0.031,-0.119,-0.125,-0.112,-0.056,-0.025
'0:00.282',-0.039,0.006,0.045,0.016,-0.042,0.026,0.034,-0.125,-0.141,-0.128,-0.059,-0.034
'0:00.283',-0.041,-0.009,0.031,0.025,-0.036,0.011,0.038,-0.131,-0.150,-0.131,-0.069,-0.044
'0:00.284',-0.042,-0.024,0.019,0.033,-0.031,-0.002,0.034,-0.134,-0.153,-0.141,-0.075,-0.056
'0:00.285',-0.041,-0.028,0.013,0.034,-0.027,-0.008,0.038,-0.138,-0.156,-0.144,-0.081,-0.062
'0:00.286',-0.047,-0.045,0.002,0.046,-0.024,-0.022,0.038,-0.138,-0.153,-0.141,-0.091,-0.066
'0:00.287',-0.050,-0.059,-0.009,0.055,-0.021,-0.034,0.038,-0.138,-0.156,-0.144,-0.100,-0.069
'0:00.288',-0.050,-0.073,-0.023,0.062,-0.014,-0.048,0.034,-0.147,-0.163,-0.144,-0.103,-0.081
'0:00.289',-0.050,-0.084,-0.034,0.068,-0.008,-0.059,0.025,-0.156,-0.175,-0.156,-0.113,-0.094
'0:00.290',-0.047,-0.091,-0.044,0.069,-0.002,-0.067,0.019,-0.159,-0.178,-0.166,-0.116,-0.100
'0:00.291',-0.047,-0.097,-0.050,0.072,0.001,-0.074,0.019,-0.163,-0.181,-0.175,-0.119,-0.100
'0:00.292',-0.049,-0.102,-0.053,0.076,0.002,-0.077,0.016,-0.169,-0.188,-0.175,-0.122,-0.103
'0:00.293',-0.053,-0.103,-0.050,0.078,-0.002,-0.077,0.013,-0.169,-0.194,-0.181,-0.125,-0.100
'0:00.294',-0.053,-0.109,-0.056,0.081,0.001,-0.083,0.016,-0.172,-0.197,-0.187,-0.131,-0.109
'0:00.295',-0.053,-0.109,-0.056,0.081,0.001,-0.083,0.019,-0.181,-0.206,-0.200,-0.138,-0.112
'0:00.296',-0.053,-0.114,-0.061,0.084,0.004,-0.087,0.013,-0.181,-0.206,-0.200,-0.144,-0.119
'0:00.297',-0.059,-0.122,-0.062,0.091,0.001,-0.093,0.006,-0.188,-0.213,-0.200,-0.144,-0.119
'0:00.298',-0.058,-0.125,-0.067,0.091,0.005,-0.096,0.019,-0.184,-0.213,-0.200,-0.141,-0.116
'0:00.299',-0.059,-0.128,-0.069,0.094,0.004,-0.099,0.025,-0.188,-0.219,-0.200,-0.144,-0.119
'0:00.300',-0.062,-0.128,-0.066,0.096,0.001,-0.097,0.019,-0.188,-0.219,-0.203,-0.144,-0.119
'0:00.301',-0.062,-0.128,-0.066,0.096,0.001,-0.097,0.019,-0.188,-0.219,-0.206,-0.144,-0.119
'0:00.302',-0.062,-0.134,-0.072,0.099,0.004,-0.103,0.022,-0.188,-0.216,-0.212,-0.150,-0.122
'0:00.303',-0.062,-0.137,-0.075,0.100,0.006,-0.106,0.025,-0.194,-0.219,-0.212,-0.150,-0.125
'0:00.304',-0.062,-0.137,-0.075,0.100,0.006,-0.106,0.016,-0.197,-0.222,-0.212,-0.153,-0.128
'0:00.305',-0.062,-0.141,-0.078,0.102,0.007,-0.109,0.013,-0.200,-0.225,-0.212,-0.156,-0.125
'0:00.306',-0.062,-0.144,-0.081,0.103,0.009,-0.112,0.013,-0.200,-0.231,-0.209,-0.156,-0.125
'0:00.307',-0.062,-0.144,-0.081,0.103,0.009,-0.112,0.013,-0.206,-0.231,-0.212,-0.156,-0.125
'0:00.308',-0.064,-0.148,-0.084,0.106,0.010,-0.116,0.013,-0.209,-0.231,-0.212,-0.162,-0.125
'0:00.309',-0.066,-0.159,-0.094,0.113,0.014,-0.127,0.013,-0.213,-0.231,-0.212,-0.162,-0.131
'0:00.310',-0.061,-0.156,-0.095,0.109,0.017,-0.126,0.013,-0.213,-0.234,-0.216,-0.159,-0.125
'0:00.311',-0.056,-0.159,-0.103,0.108,0.023,-0.131,0.013,-0.213,-0.238,-0.219,-0.156,-0.125
'0:00.312',-0.056,-0.157,-0.101,0.107,0.022,-0.129,0.013,-0.213,-0.234,-0.219,-0.156,-0.131
'0:00.313',-0.053,-0.159,-0.106,0.106,0.026,-0.133,0.013,-0.213,-0.231,-0.219,-0.156,-0.131
'0:00.314',-0.058,-0.159,-0.102,0.109,0.022,-0.131,0.013,-0.213,-0.241,-0.222,-0.156,-0.134
'0:00.315',-0.059,-0.159,-0.100,0.109,0.020,-0.130,0.013,-0.213,-0.238,-0.225,-0.156,-0.137
'0:00.316',-0.061,-0.156,-0.096,0.109,0.018,-0.126,0.013,-0.209,-0.234,-0.225,-0.159,-0.137
'0:00.317',-0.062,-0.156,-0.094,0.109,0.016,-0.125,0.013,-0.213,-0.238,-0.225,-0.162,-0.137
'0:00.318',-0.062,-0.161,-0.098,0.112,0.018,-0.129,0.016,-0.209,-0.241,-0.225,-0.169,-0.137
'0:00.319',-0.062,-0.162,-0.100,0.113,0.019,-0.131,0.019,-0.206,-0.244,-0.225,-0.169,-0.137
'0:00.320',-0.062,-0.164,-0.101,0.113,0.019,-0.133,0.019,-0.209,-0.244,-0.228,-0.169,-0.134
'0:00.321',-0.066,-0.166,-0.100,0.116,0.017,-0.133,0.019,-0.206,-0.244,-0.225,-0.169,-0.131
'0:00.322',-0.064,-0.164,-0.101,0.114,0.018,-0.133,0.013,-0.213,-0.244,-0.225,-0.169,-0.134
'0:00.323',-0.066,-0.162,-0.097,0.114,0.016,-0.130,0.013,-0.213,-0.244,-0.225,-0.169,-0.131
'0:00.324',-0.070,-0.166,-0.096,0.118,0.012,-0.131,0.013,-0.209,-0.241,-0.228,-0.169,-0.134
'0:00.325',-0.072,-0.166,-0.094,0.119,0.011,-0.130,0.013,-0.206,-0.244,-0.231,-0.169,-0.137
'0:00.326',-0.068,-0.166,-0.098,0.117,0.015,-0.132,0.009,-0.206,-0.238,-0.231,-0.172,-0.137
'0:00.327',-0.066,-0.166,-0.100,0.116,0.017,-0.133,0.006,-0.213,-0.244,-0.231,-0.175,-0.137
'0:00.328',-0.062,-0.164,-0.102,0.114,0.019,-0.133,0.006,-0.216,-0.250,-0.231,-0.175,-0.137
'0:00.329',-0.059,-0.166,-0.106,0.113,0.023,-0.136,0.006,-0.213,-0.250,-0.231,-0.175,-0.137
'0:00.330',-0.058,-0.164,-0.106,0.111,0.024,-0.135,0.003,-0.216,-0.247,-0.231,-0.172,-0.141
'0:00.331',-0.059,-0.166,-0.106,0.113,0.023,-0.136,0.000,-0.219,-0.244,-0.231,-0.169,-0.137
'0:00.332',-0.059,-0.166,-0.106,0.113,0.023,-0.136,0.006,-0.216,-0.241,-0.231,-0.169,-0.141
'0:00.333',-0.059,-0.166,-0.106,0.113,0.023,-0.136,0.000,-0.213,-0.238,-0.231,-0.169,-0.137
'0:00.334',-0.061,-0.164,-0.104,0.113,0.021,-0.134,0.006,-0.213,-0.234,-0.228,-0.169,-0.141
'0:00.335',-0.066,-0.166,-0.100,0.116,0.017,-0.133,0.006,-0.213,-0.231,-0.225,-0.169,-0.137
'0:00.336',-0.067,-0.170,-0.103,0.119,0.018,-0.137,0.009,-0.206,-0.231,-0.225,-0.172,-0.137
'0:00.337',-0.069,-0.169,-0.100,0.119,0.016,-0.134,0.013,-0.213,-0.231,-0.225,-0.175,-0.137
'0:00.338',-0.066,-0.167,-0.101,0.116,0.018,-0.134,0.006,-0.213,-0.234,-0.228,-0.175,-0.137
'0:00.339',-0.066,-0.172,-0.106,0.119,0.020,-0.139,0.006,-0.213,-0.238,-0.225,-0.175,-0.137
'0:00.340',-0.066,-0.172,-0.106,0.119,0.020,-0.139,0.009,-0.213,-0.238,-0.228,-0.172,-0.144
'0:00.341',-0.066,-0.172,-0.106,0.119,0.020,-0.139,0.013,-0.213,-0.238,-0.225,-0.169,-0.144
'0:00.342',-0.064,-0.169,-0.104,0.117,0.020,-0.137,0.009,-0.209,-0.241,-0.225,-0.172,-0.144
'0:00.343',-0.062,-0.166,-0.103,0.114,0.020,-0.134,0.006,-0.206,-0.244,-0.225,-0.175,-0.144
'0:00.344',-0.062,-0.168,-0.105,0.115,0.021,-0.136,0.006,-0.209,-0.247,-0.225,-0.175,-0.147
'0:00.345',-0.056,-0.162,-0.106,0.109,0.025,-0.134,0.006,-0.213,-0.250,-0.225,-0.175,-0.150
'0:00.346',-0.054,-0.161,-0.106,0.108,0.026,-0.134,0.003,-0.213,-0.244,-0.225,-0.172,-0.147
'0:00.347',-0.056,-0.162,-0.106,0.109,0.025,-0.134,0.000,-0.213,-0.238,-0.225,-0.169,-0.144
'0:00.348',-0.059,-0.164,-0.104,0.112,0.022,-0.134,0.000,-0.209,-0.234,-0.219,-0.169,-0.134
'0:00.349',-0.066,-0.166,-0.100,0.116,0.017,-0.133,0.006,-0.213,-0.238,-0.219,-0.169,-0.131
'0:00.350',-0.067,-0.166,-0.099,0.116,0.016,-0.133,0.006,-0.213,-0.238,-0.225,-0.172,-0.141
'0:00.351',-0.066,-0.162,-0.097,0.114,0.016,-0.130,0.006,-0.213,-0.238,-0.219,-0.175,-0.137
'0:00.352',-0.068,-0.167,-0.099,0.117,0.016,-0.133,0.006,-0.209,-0.231,-0.219,-0.172,-0.144
'0:00.353',-0.066,-0.172,-0.106,0.119,0.020,-0.139,0.006,-0.206,-0.231,-0.225,-0.169,-0.144
'0:00.354',-0.064,-0.171,-0.106,0.117,0.021,-0.139,0.003,-0.203,-0.228,-0.222,-0.166,-0.137
'0:00.355',-0.066,-0.172,-0.106,0.119,0.020,-0.139,0.006,-0.206,-0.231,-0.219,-0.169,-0.137
'0:00.356',-0.064,-0.177,-0.112,0.121,0.024,-0.145,0.013,-0.209,-0.228,-0.219,-0.175,-0.147
'0:00.357',-0.062,-0.184,-0.122,0.124,0.029,-0.153,0.019,-0.206,-0.231,-0.225,-0.181,-0.156
'0:00.358',-0.066,-0.194,-0.128,0.130,0.031,-0.161,0.034,-0.197,-0.241,-0.231,-0.188,-0.169
'0:00.359',-0.066,-0.203,-0.137,0.134,0.036,-0.171,0.044,-0.188,-0.244,-0.238,-0.200,-0.175
'0:00.360',-0.069,-0.214,-0.145,0.141,0.038,-0.179,0.056,-0.184,-0.250,-0.250,-0.213,-0.181
'0:00.361',-0.072,-0.219,-0.147,0.146,0.037,-0.183,0.069,-0.175,-0.250,-0.250,-0.219,-0.188
'0:00.362',-0.076,-0.222,-0.146,0.149,0.034,-0.184,0.084,-0.163,-0.247,-0.256,-0.225,-0.194
'0:00.363',-0.075,-0.222,-0.147,0.149,0.036,-0.184,0.094,-0.156,-0.244,-0.256,-0.231,-0.200
'0:00.364',-0.075,-0.217,-0.142,0.146,0.034,-0.180,0.106,-0.144,-0.250,-0.263,-0.234,-0.209
'0:00.365',-0.075,-0.206,-0.131,0.141,0.028,-0.169,0.119,-0.131,-0.250,-0.263,-0.238,-0.213
'0:00.366',-0.076,-0.200,-0.124,0.138,0.024,-0.162,0.125,-0.116,-0.244,-0.269,-0.234,-0.216
'0:00.367',-0.072,-0.191,-0.119,0.131,0.023,-0.155,0.131,-0.106,-0.238,-0.269,-0.238,-0.219
'0:00.368',-0.064,-0.184,-0.120,0.124,0.027,-0.152,0.134,-0.097,-0.231,-0.263,-0.231,-0.213
'0:00.369',-0.056,-0.172,-0.116,0.114,0.029,-0.144,0.138,-0.081,-0.206,-0.250,-0.225,-0.206
'0:00.370',-0.046,-0.159,-0.114,0.102,0.034,-0.137,0.134,-0.050,-0.188,-0.231,-0.216,-0.200
'0:00.371',-0.037,-0.141,-0.103,0.089,0.033,-0.122,0.138,-0.031,-0.169,-0.212,-0.200,-0.188
'0:00.372',-0.034,-0.117,-0.082,0.076,0.024,-0.100,0.138,-0.019,-0.147,-0.191,-0.181,-0.169
'0:00.373',-0.037,-0.088,-0.050,0.063,0.006,-0.069,0.138,-0.013,-0.131,-0.175,-0.156,-0.150
'0:00.374',-0.031,-0.055,-0.024,0.043,-0.004,-0.039,0.128,0.000,-0.113,-0.153,-0.125,-0.128
'0:00.375',-0.025,-0.009,0.016,0.018,-0.021,0.003,0.125,0.013,-0.081,-0.119,-0.094,-0.094
'0:00.376',-0.016,0.037,0.053,-0.011,-0.034,0.045,0.125,0.031,-0.044,-0.075,-0.050,-0.053
'0:00.377',-0.006,0.084,0.091,-0.039,-0.049,0.088,0.119,0.056,0.000,-0.025,0.000,-0.012
'0:00.378',0.000,0.130,0.130,-0.065,-0.065,0.130,0.106,0.084,0.044,0.028,0.050,0.034
'0:00.379',0.013,0.169,0.156,-0.091,-0.072,0.163,0.094,0.119,0.094,0.094,0.100,0.075
'0:00.380',0.027,0.203,0.176,-0.115,-0.075,0.189,0.069,0.150,0.147,0.153,0.153,0.119
'0:00.381',0.041,0.247,0.206,-0.144,-0.083,0.226,0.050,0.187,0.200,0.219,0.206,0.163
'0:00.382',0.059,0.289,0.230,-0.174,-0.086,0.259,0.038,0.222,0.263,0.284,0.269,0.213
'0:00.383',0.078,0.334,0.256,-0.206,-0.089,0.295,0.019,0.262,0.319,0.356,0.325,0.263
'0:00.384',0.100,0.379,0.279,-0.239,-0.090,0.329,0.000,0.303,0.388,0.428,0.394,0.316
'0:00.385',0.122,0.428,0.306,-0.275,-0.093,0.367,-0.025,0.344,0.469,0.513,0.462,0.369
'0:00.386',0.144,0.474,0.330,-0.309,-0.093,0.402,-0.056,0.391,0.550,0.603,0.534,0.428
'0:00.387',0.169,0.522,0.353,-0.345,-0.093,0.438,-0.081,0.444,0.637,0.706,0.612,0.494
'0:00.388',0.189,0.575,0.386,-0.382,-0.098,0.480,-0.109,0.491,0.728,0.803,0.697,0.566
'0:00.389',0.219,0.638,0.419,-0.428,-0.100,0.528,-0.150,0.538,0.825,0.912,0.787,0.644
'0:00.390',0.248,0.702,0.454,-0.475,-0.103,0.578,-0.197,0.584,0.916,1.016,0.875,0.716
'0:00.391',0.275,0.753,0.478,-0.514,-0.102,0.616,-0.225,0.625,1.000,1.119,0.963,0.781
'0:00.392',0.292,0.805,0.513,-0.548,-0.111,0.659,-0.253,0.650,1.088,1.222,1.044,0.853
'0:00.393',0.309,0.866,0.556,-0.588,-0.124,0.711,-0.275,0.675,1.175,1.331,1.125,0.919
'0:00.394',0.322,0.934,0.613,-0.628,-0.146,0.773,-0.309,0.703,1.269,1.434,1.209,0.987
'0:00.395',0.328,0.988,0.659,-0.658,-0.166,0.823,-0.337,0.725,1.350,1.538,1.287,1.044
'0:00.396',0.331,1.026,0.695,-0.679,-0.182,0.861,-0.356,0.734,1.425,1.634,1.353,1.094
'0:00.397',0.328,1.059,0.731,-0.694,-0.202,0.895,-0.375,0.744,1.494,1.713,1.412,1.125
'0:00.398',0.331,1.095,0.764,-0.713,-0.216,0.929,-0.391,0.750,1.559,1.784,1.456,1.156
'0:00.399',0.325,1.131,0.806,-0.728,-0.241,0.969,-0.406,0.769,1.625,1.856,1.500,1.187
'0:00.400',0.318,1.178,0.861,-0.748,-0.272,1.019,-0.425,0.784,1.678,1.919,1.547,1.222
'0:00.401',0.300,1.222,0.922,-0.761,-0.311,1.072,-0.431,0.787,1.725,1.969,1.587,1.250
'0:00.402',0.276,1.251,0.975,-0.764,-0.349,1.113,-0.437,0.762,1.756,2.003,1.606,1.256
'0:00.403',0.250,1.259,1.009,-0.754,-0.380,1.134,-0.437,0.750,1.769,2.019,1.612,1.263
'0:00.404',0.226,1.211,0.984,-0.718,-0.379,1.098,-0.431,0.744,1.788,2.031,1.606,1.234
'0:00.405',0.212,1.113,0.900,-0.662,-0.344,1.006,-0.431,0.725,1.794,2.025,1.569,1.175
'0:00.406',0.197,0.999,0.802,-0.597,-0.303,0.900,-0.425,0.687,1.781,2.019,1.506,1.113
'0:00.407',0.178,0.884,0.706,-0.531,-0.264,0.795,-0.437,0.625,1.756,1.988,1.444,1.044
'0:00.408',0.172,0.779,0.608,-0.476,-0.218,0.693,-0.453,0.556,1.713,1.953,1.378,0.975
'0:00.409',0.166,0.688,0.522,-0.426,-0.178,0.604,-0.481,0.500,1.681,1.919,1.319,0.913
'0:00.410',0.156,0.608,0.452,-0.382,-0.148,0.530,-0.509,0.434,1.644,1.891,1.259,0.856
'0:00.411',0.150,0.541,0.391,-0.345,-0.121,0.466,-0.537,0.356,1.594,1.837,1.200,0.806
'0:00.412',0.133,0.481,0.348,-0.307,-0.108,0.414,-0.562,0.272,1.519,1.762,1.131,0.747
'0:00.413',0.109,0.419,0.309,-0.264,-0.100,0.364,-0.569,0.169,1.406,1.644,1.044,0.681
'0:00.414',0.083,0.351,0.268,-0.217,-0.093,0.309,-0.575,0.059,1.281,1.509,0.938,0.606
'0:00.415',0.062,0.281,0.219,-0.172,-0.078,0.250,-0.575,-0.038,1.150,1.369,0.825,0.531
'0:00.416',0.042,0.196,0.154,-0.119,-0.056,0.174,-0.572,-0.128,1.028,1.231,0.712,0.444
'0:00.417',0.028,0.103,0.075,-0.066,-0.024,0.089,-0.575,-0.213,0.900,1.075,0.581,0.350
'0:00.418',0.013,0.005,-0.007,-0.009,0.010,-0.001,-0.569,-0.281,0.759,0.906,0.447,0.250
'0:00.419',0.000,-0.084,-0.084,0.043,0.042,-0.084,-0.569,-0.344,0.625,0.737,0.312,0.150
'0:00.420',-0.017,-0.170,-0.153,0.094,0.068,-0.162,-0.544,-0.397,0.484,0.569,0.187,0.066
'0:00.421',-0.034,-0.237,-0.203,0.136,0.084,-0.221,-0.519,-0.444,0.344,0.406,0.081,0.000
'0:00.422',-0.046,-0.287,-0.242,0.167,0.098,-0.265,-0.487,-0.506,0.203,0.241,-0.013,-0.056
'0:00.423',-0.053,-0.316,-0.262,0.184,0.104,-0.289,-0.462,-0.575,0.050,0.087,-0.088,-0.100
'0:00.424',-0.069,-0.339,-0.270,0.204,0.101,-0.304,-0.444,-0.650,-0.113,-0.066,-0.156,-0.141
'0:00.425',-0.078,-0.350,-0.272,0.214,0.097,-0.311,-0.419,-0.719,-0.263,-0.200,-0.219,-0.169
'0:00.426',-0.084,-0.362,-0.278,0.224,0.097,-0.321,-0.409,-0.766,-0.388,-0.306,-0.253,-0.191
'0:00.427',-0.091,-0.366,-0.275,0.228,0.092,-0.321,-0.394,-0.775,-0.456,-0.356,-0.275,-0.206
'0:00.428',-0.097,-0.364,-0.267,0.231,0.085,-0.316,-0.378,-0.781,-0.481,-0.384,-0.294,-0.216
'0:00.429',-0.100,-0.362,-0.262,0.231,0.081,-0.312,-0.362,-0.756,-0.494,-0.387,-0.288,-0.219
'0:00.430',-0.100,-0.353,-0.253,0.227,0.076,-0.303,-0.341,-0.725,-0.494,-0.387,-0.288,-0.222
'0:00.431',-0.100,-0.347,-0.247,0.224,0.073,-0.297,-0.325,-0.694,-0.487,-0.387,-0.281,-0.219
'0:00.432',-0.097,-0.333,-0.236,0.215,0.069,-0.285,-0.303,-0.666,-0.466,-0.372,-0.275,-0.216
'0:00.433',-0.094,-0.313,-0.219,0.203,0.062,-0.266,-0.287,-0.631,-0.444,-0.362,-0.263,-0.213
'0:00.434',-0.089,-0.292,-0.202,0.191,0.056,-0.247,-0.259,-0.591,-0.419,-0.341,-0.250,-0.200
'0:00.435',-0.088,-0.284,-0.197,0.186,0.054,-0.241,-0.231,-0.544,-0.394,-0.319,-0.238,-0.194
'0:00.436',-0.081,-0.269,-0.187,0.175,0.053,-0.228,-0.209,-0.513,-0.375,-0.306,-0.231,-0.184
'0:00.437',-0.072,-0.256,-0.184,0.164,0.056,-0.221,-0.194,-0.475,-0.356,-0.300,-0.219,-0.175
'0:00.438',-0.068,-0.246,-0.178,0.157,0.055,-0.212,-0.172,-0.437,-0.347,-0.294,-0.219,-0.178
'0:00.439',-0.062,-0.237,-0.175,0.150,0.056,-0.206,-0.156,-0.406,-0.331,-0.281,-0.213,-0.175
'0:00.440',-0.061,-0.228,-0.167,0.145,0.052,-0.197,-0.131,-0.375,-0.309,-0.269,-0.206,-0.169
'0:00.441',-0.056,-0.222,-0.166,0.139,0.054,-0.194,-0.112,-0.344,-0.294,-0.256,-0.200,-0.169
'0:00.442',-0.061,-0.216,-0.155,0.138,0.047,-0.186,-0.094,-0.313,-0.269,-0.238,-0.191,-0.159
'0:00.443',-0.062,-0.209,-0.147,0.136,0.042,-0.178,-0.075,-0.281,-0.250,-0.225,-0.181,-0.150
'0:00.444',-0.058,-0.200,-0.142,0.129,0.042,-0.171,-0.069,-0.259,-0.238,-0.212,-0.175,-0.150
'0:00.445',-0.056,-0.191,-0.134,0.124,0.039,-0.162,-0.062,-0.238,-0.231,-0.212,-0.169,-0.144
'0:00.446',-0.050,-0.184,-0.134,0.117,0.042,-0.159,-0.050,-0.225,-0.228,-0.209,-0.169,-0.141
'0:00.447',-0.050,-0.181,-0.131,0.116,0.041,-0.156,-0.044,-0.213,-0.225,-0.212,-0.162,-0.137
'0:00.448',-0.050,-0.175,-0.125,0.113,0.037,-0.150,-0.037,-0.206,-0.219,-0.203,-0.162,-0.131
'0:00.449',-0.047,-0.162,-0.116,0.105,0.034,-0.139,-0.037,-0.194,-0.213,-0.194,-0.162,-0.131
'0:00.450',-0.044,-0.156,-0.112,0.100,0.034,-0.134,-0.031,-0.184,-0.206,-0.194,-0.156,-0.122
'0:00.451',-0.041,-0.150,-0.109,0.096,0.034,-0.130,-0.025,-0.175,-0.200,-0.187,-0.150,-0.119
'0:00.452',-0.039,-0.144,-0.105,0.091,0.033,-0.124,-0.019,-0.169,-0.194,-0.187,-0.150,-0.116
'0:00.453',-0.041,-0.144,-0.103,0.093,0.031,-0.124,-0.019,-0.169,-0.194,-0.187,-0.144,-0.119
'0:00.454',-0.039,-0.139,-0.100,0.089,0.030,-0.120,-0.009,-0.163,-0.191,-0.191,-0.144,-0.122
'0:00.455',-0.041,-0.134,-0.094,0.088,0.026,-0.114,0.000,-0.163,-0.194,-0.187,-0.144,-0.119
'0:00.456',-0.041,-0.133,-0.092,0.087,0.026,-0.113,0.000,-0.163,-0.194,-0.184,-0.141,-0.128
'0:00.457',-0.041,-0.131,-0.091,0.086,0.025,-0.111,0.006,-0.156,-0.194,-0.187,-0.138,-0.125
'0:00.458',-0.044,-0.131,-0.087,0.088,0.022,-0.109,0.009,-0.153,-0.184,-0.187,-0.138,-0.122
'0:00.459',-0.047,-0.134,-0.087,0.091,0.020,-0.111,0.019,-0.144,-0.188,-0.187,-0.138,-0.119
'0:00.460',-0.047,-0.137,-0.091,0.093,0.022,-0.114,0.019,-0.144,-0.188,-0.178,-0.138,-0.119
'0:00.461',-0.050,-0.141,-0.091,0.096,0.020,-0.116,0.019,-0.138,-0.181,-0.181,-0.138,-0.119
'0:00.462',-0.050,-0.141,-0.091,0.096,0.020,-0.116,0.016,-0.131,-0.178,-0.181,-0.138,-0.122
'0:00.463',-0.050,-0.141,-0.091,0.096,0.020,-0.116,0.019,-0.131,-0.175,-0.181,-0.138,-0.119
'0:00.464',-0.050,-0.144,-0.094,0.097,0.022,-0.119,0.022,-0.125,-0.175,-0.181,-0.144,-0.116
'0:00.465',-0.050,-0.144,-0.094,0.097,0.022,-0.119,0.025,-0.125,-0.175,-0.181,-0.144,-0.112
'0:00.466',-0.049,-0.139,-0.091,0.094,0.021,-0.115,0.025,-0.122,-0.178,-0.178,-0.147,-0.119
'0:00.467',-0.047,-0.137,-0.091,0.093,0.022,-0.114,0.025,-0.119,-0.181,-0.175,-0.144,-0.112
'0:00.468',-0.047,-0.139,-0.092,0.093,0.022,-0.116,0.025,-0.119,-0.172,-0.175,-0.144,-0.112
'0:00.469',-0.047,-0.137,-0.091,0.093,0.022,-0.114,0.025,-0.119,-0.175,-0.175,-0.144,-0.112
'0:00.470',-0.047,-0.137,-0.091,0.093,0.022,-0.114,0.022,-0.119,-0.178,-0.172,-0.144,-0.116
'0:00.471',-0.047,-0.134,-0.087,0.091,0.020,-0.111,0.019,-0.119,-0.181,-0.169,-0.144,-0.119
'0:00.472',-0.047,-0.131,-0.084,0.089,0.019,-0.108,0.019,-0.122,-0.175,-0.169,-0.141,-0.112
'0:00.473',-0.047,-0.131,-0.084,0.089,0.019,-0.108,0.019,-0.119,-0.175,-0.169,-0.138,-0.112
'0:00.474',-0.047,-0.129,-0.082,0.088,0.018,-0.106,0.028,-0.119,-0.175,-0.172,-0.141,-0.116
'0:00.475',-0.047,-0.131,-0.084,0.089,0.019,-0.108,0.031,-0.119,-0.175,-0.169,-0.138,-0.119
'0:00.476',-0.047,-0.131,-0.084,0.089,0.019,-0.108,0.028,-0.113,-0.175,-0.169,-0.144,-0.116
'0:00.477',-0.044,-0.131,-0.087,0.088,0.022,-0.109,0.025,-0.113,-0.175,-0.169,-0.138,-0.112
'0:00.478',-0.042,-0.130,-0.087,0.086,0.022,-0.109,0.025,-0.103,-0.163,-0.172,-0.134,-0.109
'0:00.479',-0.041,-0.128,-0.087,0.084,0.023,-0.108,0.025,-0.100,-0.156,-0.169,-0.131,-0.106
'0:00.480',-0.042,-0.133,-0.091,0.088,0.024,-0.112,0.028,-0.100,-0.156,-0.175,-0.131,-0.106
'0:00.481',-0.041,-0.134,-0.094,0.088,0.026,-0.114,0.031,-0.100,-0.156,-0.175,-0.131,-0.106
'0:00.482',-0.041,-0.133,-0.092,0.087,0.026,-0.112,0.034,-0.100,-0.159,-0.169,-0.128,-0.106
'0:00.483',-0.041,-0.134,-0.094,0.088,0.026,-0.114,0.038,-0.094,-0.163,-0.169,-0.125,-0.106
'0:00.484',-0.042,-0.131,-0.089,0.087,0.024,-0.111,0.038,-0.097,-0.163,-0.169,-0.128,-0.106
'0:00.485',-0.044,-0.134,-0.091,0.089,0.023,-0.112,0.038,-0.100,-0.163,-0.169,-0.125,-0.106
'0:00.486',-0.047,-0.133,-0.086,0.090,0.019,-0.109,0.038,-0.097,-0.163,-0.169,-0.125,-0.106
'0:00.487',-0.047,-0.134,-0.087,0.091,0.020,-0.111,0.038,-0.094,-0.163,-0.163,-0.125,-0.100
'0:00.488',-0.044,-0.130,-0.086,0.087,0.021,-0.108,0.034,-0.094,-0.163,-0.163,-0.128,-0.097
'0:00.489',-0.044,-0.125,-0.081,0.084,0.019,-0.103,0.031,-0.094,-0.163,-0.163,-0.131,-0.094
'0:00.490',-0.034,-0.122,-0.087,0.078,0.026,-0.105,0.034,-0.094,-0.156,-0.163,-0.128,-0.097
'0:00.491',-0.031,-0.119,-0.087,0.075,0.028,-0.103,0.038,-0.088,-0.156,-0.163,-0.125,-0.100
'0:00.492',-0.030,-0.114,-0.084,0.072,0.027,-0.099,0.038,-0.091,-0.150,-0.163,-0.125,-0.100
'0:00.493',-0.025,-0.109,-0.084,0.068,0.029,-0.097,0.038,-0.088,-0.150,-0.163,-0.119,-0.094
'0:00.494',-0.025,-0.111,-0.086,0.068,0.030,-0.098,0.034,-0.091,-0.150,-0.166,-0.119,-0.091
'0:00.495',-0.025,-0.109,-0.084,0.068,0.029,-0.097,0.038,-0.094,-0.150,-0.163,-0.125,-0.094
'0:00.496',-0.025,-0.109,-0.084,0.068,0.029,-0.097,0.034,-0.084,-0.150,-0.159,-0.119,-0.097
'0:00.497',-0.028,-0.116,-0.087,0.072,0.029,-0.102,0.038,-0.081,-0.150,-0.156,-0.119,-0.100
'0:00.498',-0.033,-0.119,-0.086,0.076,0.027,-0.102,0.034,-0.081,-0.150,-0.156,-0.128,-0.103
'0:00.499',-0.034,-0.119,-0.084,0.077,0.025,-0.102,0.031,-0.081,-0.144,-0.156,-0.125,-0.106
'0:00.500',-0.033,-0.119,-0.086,0.076,0.026,-0.102,0.034,-0.075,-0.147,-0.156,-0.125,-0.106
'0:00.501',-0.028,-0.116,-0.087,0.072,0.029,-0.102,0.031,-0.075,-0.150,-0.150,-0.125,-0.100
'0:00.502',-0.033,-0.113,-0.080,0.072,0.024,-0.096,0.031,-0.075,-0.144,-0.150,-0.125,-0.097
'0:00.503',-0.031,-0.113,-0.081,0.072,0.025,-0.097,0.031,-0.075,-0.131,-0.150,-0.119,-0.094
'0:00.504',-0.029,-0.111,-0.081,0.070,0.026,-0.096,0.034,-0.069,-0.141,-0.150,-0.125,-0.094
'0:00.505',-0.031,-0.113,-0.081,0.072,0.025,-0.097,0.038,-0.069,-0.144,-0.150,-0.125,-0.094
'0:00.506',-0.033,-0.111,-0.078,0.072,0.022,-0.094,0.031,-0.069,-0.138,-0.150,-0.116,-0.097
'0:00.507',-0.034,-0.113,-0.078,0.074,0.022,-0.096,0.031,-0.069,-0.138,-0.144,-0.113,-0.100
'0:00.508',-0.036,-0.113,-0.077,0.074,0.021,-0.095,0.038,-0.066,-0.131,-0.141,-0.113,-0.094
'0:00.509',-0.034,-0.113,-0.078,0.074,0.022,-0.096,0.038,-0.069,-0.131,-0.138,-0.113,-0.100
'0:00.510',-0.033,-0.111,-0.077,0.072,0.022,-0.094,0.038,-0.069,-0.134,-0.141,-0.116,-0.100
'0:00.511',-0.031,-0.113,-0.081,0.072,0.025,-0.097,0.038,-0.069,-0.138,-0.138,-0.113,-0.094
'0:00.512',-0.033,-0.111,-0.078,0.072,0.022,-0.095,0.038,-0.063,-0.131,-0.138,-0.109,-0.091
'0:00.513',-0.031,-0.109,-0.078,0.071,0.023,-0.094,0.038,-0.056,-0.131,-0.138,-0.106,-0.088
'0:00.514',-0.029,-0.109,-0.080,0.069,0.025,-0.095,0.038,-0.053,-0.131,-0.138,-0.106,-0.091
'0:00.515',-0.031,-0.106,-0.075,0.069,0.022,-0.091,0.038,-0.050,-0.125,-0.131,-0.106,-0.088
'0:00.516',-0.031,-0.109,-0.078,0.071,0.023,-0.094,0.038,-0.044,-0.125,-0.131,-0.103,-0.088
'0:00.517',-0.031,-0.109,-0.078,0.071,0.023,-0.094,0.038,-0.044,-0.125,-0.125,-0.106,-0.088
'0:00.518',-0.031,-0.113,-0.081,0.072,0.025,-0.097,0.038,-0.044,-0.116,-0.125,-0.103,-0.088
'0:00.519',-0.031,-0.113,-0.081,0.072,0.025,-0.097,0.038,-0.044,-0.113,-0.125,-0.100,-0.088
'0:00.520',-0.030,-0.108,-0.078,0.069,0.024,-0.093,0.038,-0.038,-0.113,-0.122,-0.100,-0.081
'0:00.521',-0.028,-0.106,-0.078,0.068,0.025,-0.093,0.038,-0.038,-0.113,-0.119,-0.094,-0.075
'0:00.522',-0.024,-0.103,-0.079,0.064,0.027,-0.091,0.038,-0.038,-0.109,-0.112,-0.088,-0.075
'0:00.523',-0.019,-0.103,-0.084,0.061,0.033,-0.094,0.038,-0.031,-0.106,-0.112,-0.088,-0.075
'0:00.524',-0.020,-0.103,-0.083,0.062,0.031,-0.093,0.038,-0.031,-0.100,-0.116,-0.084,-0.078
'0:00.525',-0.019,-0.103,-0.084,0.061,0.033,-0.094,0.038,-0.025,-0.100,-0.119,-0.088,-0.081
'0:00.526',-0.020,-0.101,-0.081,0.061,0.031,-0.091,0.038,-0.025,-0.097,-0.119,-0.088,-0.075
'0:00.527',-0.019,-0.103,-0.084,0.061,0.033,-0.094,0.038,-0.025,-0.100,-0.112,-0.088,-0.075
'0:00.528',-0.020,-0.100,-0.080,0.060,0.030,-0.090,0.038,-0.019,-0.100,-0.112,-0.088,-0.075
'0:00.529',-0.022,-0.097,-0.075,0.059,0.026,-0.086,0.038,-0.013,-0.094,-0.112,-0.081,-0.075
'0:00.530',-0.019,-0.097,-0.078,0.058,0.029,-0.087,0.038,-0.009,-0.094,-0.103,-0.084,-0.075
'0:00.531',-0.019,-0.097,-0.078,0.058,0.029,-0.087,0.038,-0.006,-0.094,-0.100,-0.088,-0.075
'0:00.532',-0.025,-0.100,-0.075,0.063,0.025,-0.087,0.038,-0.003,-0.088,-0.100,-0.084,-0.072
'0:00.533',-0.025,-0.106,-0.081,0.066,0.028,-0.094,0.038,-0.006,-0.088,-0.094,-0.081,-0.062
'0:00.534',-0.029,-0.104,-0.075,0.067,0.022,-0.090,0.041,-0.006,-0.078,-0.094,-0.078,-0.066
'0:00.535',-0.031,-0.106,-0.075,0.069,0.022,-0.091,0.044,-0.006,-0.075,-0.094,-0.081,-0.069
'0:00.536',-0.029,-0.103,-0.074,0.066,0.022,-0.089,0.044,0.000,-0.075,-0.094,-0.081,-0.069
'0:00.537',-0.028,-0.100,-0.072,0.064,0.022,-0.086,0.044,0.006,-0.069,-0.088,-0.081,-0.069
'0:00.538',-0.028,-0.099,-0.071,0.064,0.021,-0.085,0.041,0.009,-0.066,-0.088,-0.072,-0.069
'0:00.539',-0.028,-0.097,-0.069,0.063,0.020,-0.083,0.038,0.013,-0.062,-0.081,-0.069,-0.069
'0:00.540',-0.022,-0.091,-0.069,0.056,0.023,-0.080,0.038,0.016,-0.062,-0.084,-0.072,-0.062
'0:00.541',-0.016,-0.088,-0.072,0.052,0.028,-0.080,0.038,0.019,-0.069,-0.081,-0.075,-0.062
'0:00.542',-0.019,-0.089,-0.070,0.054,0.026,-0.079,0.038,0.019,-0.062,-0.081,-0.069,-0.059
'0:00.543',-0.019,-0.088,-0.069,0.053,0.025,-0.078,0.038,0.025,-0.062,-0.081,-0.069,-0.056
'0:00.544',-0.014,-0.089,-0.074,0.052,0.030,-0.082,0.041,0.022,-0.059,-0.081,-0.066,-0.059
'0:00.545',-0.013,-0.091,-0.078,0.052,0.033,-0.084,0.044,0.025,-0.062,-0.075,-0.063,-0.062
'0:00.546',-0.013,-0.088,-0.075,0.050,0.031,-0.081,0.044,0.025,-0.056,-0.075,-0.066,-0.066
'0:00.547',-0.013,-0.088,-0.075,0.050,0.031,-0.081,0.044,0.031,-0.056,-0.069,-0.063,-0.062
'0:00.548',-0.013,-0.084,-0.072,0.049,0.029,-0.078,0.044,0.038,-0.047,-0.063,-0.063,-0.059
'0:00.549',-0.013,-0.084,-0.072,0.049,0.029,-0.078,0.044,0.038,-0.044,-0.063,-0.063,-0.056
'0:00.550',-0.013,-0.084,-0.072,0.049,0.029,-0.078,0.041,0.047,-0.031,-0.056,-0.053,-0.056
'0:00.551',-0.013,-0.081,-0.069,0.047,0.028,-0.075,0.038,0.050,-0.025,-0.050,-0.050,-0.050
'0:00.552',-0.014,-0.080,-0.066,0.047,0.026,-0.073,0.038,0.056,-0.019,-0.044,-0.053,-0.050
'0:00.553',-0.013,-0.078,-0.066,0.046,0.026,-0.072,0.038,0.063,-0.019,-0.044,-0.050,-0.050
'0:00.554',-0.013,-0.074,-0.061,0.043,0.024,-0.067,0.038,0.063,-0.019,-0.041,-0.047,-0.053
'0:00.555',-0.009,-0.069,-0.059,0.039,0.025,-0.064,0.038,0.063,-0.025,-0.044,-0.044,-0.056
'0:00.556',-0.005,-0.066,-0.061,0.036,0.027,-0.063,0.034,0.066,-0.022,-0.041,-0.044,-0.050
'0:00.557',0.000,-0.063,-0.062,0.031,0.031,-0.062,0.031,0.069,-0.019,-0.037,-0.038,-0.050
'0:00.558',0.003,-0.059,-0.062,0.028,0.033,-0.061,0.031,0.078,-0.016,-0.034,-0.038,-0.047
'0:00.559',0.006,-0.056,-0.062,0.025,0.034,-0.059,0.031,0.081,-0.012,-0.025,-0.038,-0.044
'0:00.560',0.006,-0.056,-0.062,0.025,0.034,-0.059,0.038,0.088,-0.006,-0.025,-0.031,-0.037
'0:00.561',0.006,-0.056,-0.062,0.025,0.034,-0.059,0.038,0.088,0.000,-0.019,-0.031,-0.037
'0:00.562',0.003,-0.057,-0.061,0.027,0.032,-0.059,0.038,0.091,0.013,-0.016,-0.034,-0.037
'0:00.563',0.003,-0.056,-0.059,0.027,0.031,-0.058,0.038,0.094,0.019,-0.006,-0.031,-0.037
'0:00.564',0.006,-0.056,-0.062,0.025,0.034,-0.059,0.034,0.103,0.022,-0.012,-0.031,-0.031
'0:00.565',0.006,-0.056,-0.062,0.025,0.034,-0.059,0.031,0.106,0.025,-0.012,-0.025,-0.031
'0:00.566',0.006,-0.052,-0.058,0.023,0.032,-0.055,0.038,0.113,0.022,-0.006,-0.022,-0.037
'0:00.567',0.009,-0.050,-0.059,0.021,0.034,-0.055,0.038,0.119,0.025,-0.006,-0.019,-0.044
'0:00.568',0.013,-0.046,-0.058,0.017,0.035,-0.052,0.038,0.116,0.028,0.000,-0.022,-0.034
'0:00.569',0.009,-0.041,-0.050,0.016,0.029,-0.046,0.031,0.119,0.038,0.000,-0.019,-0.031
'0:00.570',0.009,-0.041,-0.050,0.016,0.029,-0.046,0.031,0.125,0.041,0.006,-0.019,-0.034
'0:00.571',0.009,-0.041,-0.050,0.016,0.029,-0.046,0.031,0.131,0.044,0.012,-0.013,-0.037
'0:00.572',0.009,-0.037,-0.047,0.014,0.028,-0.042,0.031,0.138,0.050,0.009,-0.009,-0.028
'0:00.573',0.009,-0.034,-0.044,0.013,0.026,-0.039,0.031,0.138,0.050,0.012,-0.006,-0.025
'0:00.574',0.011,-0.032,-0.043,0.011,0.027,-0.038,0.031,0.144,0.056,0.016,0.000,-0.022
'0:00.575',0.013,-0.034,-0.047,0.011,0.029,-0.041,0.031,0.150,0.063,0.025,0.000,-0.012
'0:00.576',0.016,-0.033,-0.049,0.009,0.032,-0.041,0.028,0.159,0.059,0.031,0.003,-0.009
'0:00.577',0.019,-0.028,-0.047,0.005,0.033,-0.037,0.025,0.162,0.069,0.031,0.000,-0.006
'0:00.578',0.021,-0.027,-0.047,0.003,0.034,-0.037,0.028,0.169,0.072,0.034,0.006,-0.003
'0:00.579',0.022,-0.022,-0.044,0.000,0.033,-0.033,0.031,0.175,0.081,0.037,0.006,-0.006
'0:00.580',0.021,-0.019,-0.039,-0.001,0.030,-0.029,0.028,0.178,0.088,0.047,0.006,-0.003
'0:00.581',0.022,-0.016,-0.037,-0.003,0.029,-0.027,0.025,0.181,0.088,0.050,0.012,0.000
'0:00.582',0.026,-0.017,-0.043,-0.004,0.034,-0.030,0.028,0.184,0.094,0.056,0.016,0.000
'0:00.583',0.028,-0.016,-0.044,-0.006,0.036,-0.030,0.031,0.194,0.100,0.056,0.019,0.000
'0:00.584',0.031,-0.016,-0.047,-0.007,0.039,-0.031,0.031,0.206,0.106,0.059,0.022,0.000
'0:00.585',0.038,-0.009,-0.047,-0.014,0.042,-0.028,0.031,0.206,0.113,0.063,0.019,0.000
'0:00.586',0.039,-0.006,-0.046,-0.016,0.042,-0.026,0.031,0.209,0.122,0.072,0.025,0.000
'0:00.587',0.038,-0.003,-0.041,-0.017,0.039,-0.022,0.031,0.212,0.125,0.075,0.025,0.000
'0:00.588',0.034,-0.003,-0.037,-0.016,0.036,-0.021,0.025,0.219,0.128,0.078,0.034,0.009
'0:00.589',0.034,0.000,-0.034,-0.017,0.034,-0.017,0.025,0.225,0.131,0.081,0.037,0.012
'0:00.590',0.039,0.000,-0.039,-0.019,0.039,-0.019,0.019,0.231,0.134,0.091,0.044,0.016
'0:00.591',0.044,0.006,-0.037,-0.025,0.041,-0.016,0.013,0.231,0.138,0.094,0.044,0.019
'0:00.592',0.047,0.005,-0.042,-0.026,0.044,-0.019,0.013,0.237,0.141,0.103,0.044,0.019
'0:00.593',0.047,0.006,-0.041,-0.026,0.044,-0.017,0.013,0.244,0.150,0.112,0.050,0.025
'0:00.594',0.047,0.008,-0.039,-0.027,0.042,-0.016,0.009,0.250,0.156,0.119,0.056,0.028
'0:00.595',0.044,0.006,-0.037,-0.025,0.041,-0.016,0.013,0.250,0.163,0.125,0.056,0.025
'0:00.596',0.046,0.008,-0.038,-0.026,0.042,-0.016,0.016,0.262,0.172,0.125,0.062,0.022
'0:00.597',0.047,0.009,-0.037,-0.028,0.042,-0.014,0.019,0.262,0.181,0.131,0.062,0.025
'0:00.598',0.051,0.009,-0.042,-0.030,0.046,-0.016,0.016,0.272,0.184,0.138,0.072,0.028
'0:00.599',0.059,0.012,-0.047,-0.036,0.053,-0.017,0.013,0.281,0.188,0.138,0.075,0.031
'0:00.600',0.058,0.009,-0.049,-0.034,0.053,-0.020,0.019,0.287,0.191,0.144,0.072,0.038
'0:00.601',0.056,0.009,-0.047,-0.032,0.051,-0.019,0.013,0.294,0.200,0.150,0.075,0.038
'0:00.602',0.055,0.012,-0.042,-0.034,0.049,-0.015,0.016,0.303,0.206,0.150,0.078,0.038
'0:00.603',0.053,0.016,-0.037,-0.034,0.045,-0.011,0.019,0.306,0.213,0.156,0.081,0.038
'0:00.604',0.058,0.019,-0.039,-0.038,0.048,-0.010,0.022,0.309,0.209,0.159,0.084,0.044
'0:00.605',0.059,0.025,-0.034,-0.042,0.047,-0.005,0.025,0.312,0.213,0.156,0.081,0.044
'0:00.606',0.066,0.026,-0.039,-0.046,0.052,-0.007,0.016,0.319,0.219,0.163,0.081,0.044
'0:00.607',0.069,0.028,-0.041,-0.048,0.054,-0.006,0.013,0.325,0.225,0.169,0.087,0.044
'0:00.608',0.072,0.031,-0.041,-0.051,0.056,-0.005,0.013,0.322,0.231,0.169,0.084,0.047
'0:00.609',0.075,0.031,-0.044,-0.053,0.059,-0.006,0.013,0.325,0.231,0.175,0.087,0.056
'0:00.610',0.078,0.036,-0.042,-0.057,0.060,-0.004,0.009,0.325,0.238,0.175,0.091,0.056
'0:00.611',0.078,0.037,-0.041,-0.058,0.059,-0.002,0.006,0.331,0.244,0.181,0.100,0.056
'0:00.612',0.080,0.039,-0.041,-0.059,0.060,-0.001,0.006,0.337,0.244,0.184,0.106,0.059
'0:00.613',0.078,0.037,-0.041,-0.058,0.059,-0.002,0.006,0.350,0.244,0.194,0.113,0.056
'0:00.614',0.078,0.039,-0.039,-0.059,0.058,0.000,0.009,0.350,0.256,0.203,0.109,0.056
'0:00.615',0.078,0.037,-0.041,-0.058,0.059,-0.002,0.013,0.356,0.263,0.206,0.106,0.056
'0:00.616',0.077,0.037,-0.039,-0.057,0.058,-0.001,0.003,0.353,0.263,0.203,0.109,0.059
'0:00.617',0.078,0.037,-0.041,-0.058,0.059,-0.002,0.000,0.356,0.263,0.206,0.106,0.063
'0:00.618',0.078,0.041,-0.037,-0.059,0.058,0.001,0.003,0.353,0.269,0.206,0.106,0.059
'0:00.619',0.081,0.041,-0.041,-0.061,0.061,0.000,0.006,0.356,0.269,0.206,0.113,0.063
'0:00.620',0.080,0.037,-0.042,-0.059,0.061,-0.002,0.003,0.356,0.272,0.212,0.119,0.066
'0:00.621',0.078,0.037,-0.041,-0.058,0.059,-0.002,0.000,0.362,0.281,0.219,0.125,0.069
'0:00.622',0.077,0.039,-0.038,-0.058,0.058,0.000,0.003,0.366,0.281,0.225,0.119,0.072
'0:00.623',0.078,0.044,-0.034,-0.061,0.056,0.004,0.006,0.375,0.288,0.225,0.119,0.069
'0:00.624',0.082,0.047,-0.036,-0.064,0.059,0.006,0.006,0.372,0.284,0.228,0.119,0.072
'0:00.625',0.091,0.050,-0.041,-0.070,0.066,0.004,0.006,0.375,0.288,0.231,0.119,0.075
'0:00.626',0.091,0.054,-0.036,-0.072,0.063,0.009,0.000,0.375,0.284,0.228,0.119,0.072
'0:00.627',0.094,0.059,-0.034,-0.076,0.064,0.013,0.000,0.375,0.281,0.231,0.125,0.069
'0:00.628',0.093,0.055,-0.037,-0.074,0.065,0.009,-0.003,0.375,0.284,0.225,0.119,0.069
'0:00.629',0.091,0.056,-0.034,-0.073,0.062,0.011,-0.006,0.375,0.294,0.231,0.125,0.069
'0:00.630',0.089,0.053,-0.036,-0.071,0.062,0.008,-0.009,0.378,0.294,0.231,0.125,0.075
'0:00.631',0.091,0.050,-0.041,-0.070,0.066,0.004,-0.012,0.381,0.294,0.231,0.125,0.075
'0:00.632',0.091,0.050,-0.041,-0.070,0.066,0.004,-0.012,0.391,0.300,0.238,0.125,0.075
'0:00.633',0.091,0.056,-0.034,-0.073,0.062,0.011,-0.012,0.394,0.300,0.238,0.125,0.075
'0:00.634',0.094,0.059,-0.034,-0.076,0.064,0.013,-0.012,0.391,0.300,0.241,0.125,0.075
'0:00.635',0.097,0.059,-0.037,-0.078,0.067,0.011,-0.012,0.394,0.306,0.244,0.131,0.075
'0:00.636',0.095,0.056,-0.039,-0.076,0.067,0.009,-0.012,0.394,0.306,0.247,0.131,0.081
'0:00.637',0.097,0.059,-0.037,-0.078,0.067,0.011,-0.012,0.394,0.306,0.244,0.131,0.081
'0:00.638',0.096,0.056,-0.039,-0.076,0.067,0.008,-0.012,0.394,0.303,0.244,0.131,0.081
'0:00.639',0.097,0.059,-0.037,-0.078,0.067,0.011,-0.012,0.394,0.306,0.244,0.131,0.081
'0:00.640',0.093,0.058,-0.034,-0.075,0.063,0.012,-0.012,0.394,0.309,0.244,0.134,0.081
'0:00.641',0.094,0.059,-0.034,-0.076,0.064,0.013,-0.012,0.400,0.313,0.250,0.138,0.081
'0:00.642',0.095,0.063,-0.032,-0.079,0.064,0.015,-0.009,0.397,0.313,0.247,0.138,0.084
'0:00.643',0.097,0.063,-0.034,-0.079,0.066,0.014,-0.006,0.394,0.313,0.244,0.131,0.088
'0:00.644',0.101,0.064,-0.037,-0.083,0.069,0.013,-0.006,0.394,0.313,0.244,0.131,0.097
'0:00.645',0.103,0.066,-0.037,-0.084,0.070,0.014,-0.006,0.394,0.319,0.244,0.131,0.094
'0:00.646',0.102,0.068,-0.034,-0.084,0.068,0.016,-0.012,0.394,0.322,0.247,0.134,0.091
'0:00.647',0.100,0.066,-0.034,-0.083,0.067,0.016,-0.006,0.400,0.325,0.250,0.138,0.094
'0:00.648',0.099,0.068,-0.031,-0.083,0.065,0.018,-0.006,0.403,0.322,0.250,0.138,0.097
'0:00.649',0.097,0.063,-0.034,-0.079,0.066,0.014,-0.006,0.406,0.325,0.256,0.138,0.100
'0:00.650',0.094,0.063,-0.031,-0.078,0.062,0.016,-0.009,0.406,0.325,0.253,0.138,0.097
'0:00.651',0.088,0.063,-0.025,-0.075,0.056,0.019,-0.012,0.412,0.325,0.250,0.138,0.094
'0:00.652',0.091,0.063,-0.028,-0.076,0.059,0.017,-0.012,0.412,0.322,0.253,0.144,0.091
'0:00.653',0.091,0.066,-0.025,-0.078,0.058,0.020,-0.012,0.412,0.319,0.256,0.144,0.088
'0:00.654',0.094,0.072,-0.022,-0.083,0.058,0.025,-0.016,0.409,0.325,0.256,0.141,0.084
'0:00.655',0.100,0.075,-0.025,-0.088,0.062,0.025,-0.012,0.406,0.325,0.256,0.138,0.081
'0:00.656',0.100,0.077,-0.023,-0.088,0.061,0.027,-0.006,0.409,0.328,0.266,0.138,0.091
'0:00.657',0.100,0.075,-0.025,-0.088,0.062,0.025,-0.006,0.406,0.331,0.269,0.144,0.094
'0:00.658',0.099,0.074,-0.025,-0.086,0.062,0.024,-0.003,0.409,0.328,0.266,0.144,0.094
'0:00.659',0.100,0.072,-0.028,-0.086,0.064,0.022,0.000,0.412,0.331,0.269,0.144,0.094
'0:00.660',0.103,0.075,-0.028,-0.089,0.066,0.023,-0.009,0.409,0.334,0.259,0.144,0.094
'0:00.661',0.106,0.078,-0.028,-0.092,0.067,0.025,-0.012,0.412,0.338,0.262,0.138,0.094
'0:00.662',0.105,0.078,-0.027,-0.091,0.066,0.026,-0.016,0.409,0.338,0.262,0.147,0.094
'0:00.663',0.103,0.078,-0.025,-0.091,0.064,0.026,-0.019,0.419,0.338,0.262,0.150,0.094
'0:00.664',0.100,0.078,-0.022,-0.089,0.061,0.028,-0.019,0.422,0.334,0.262,0.150,0.094
'0:00.665',0.100,0.078,-0.022,-0.089,0.061,0.028,-0.019,0.425,0.338,0.262,0.150,0.094
'0:00.666',0.099,0.081,-0.017,-0.090,0.058,0.032,-0.012,0.428,0.341,0.269,0.147,0.100
'0:00.667',0.100,0.081,-0.019,-0.091,0.059,0.031,-0.012,0.431,0.338,0.262,0.144,0.094
'0:00.668',0.096,0.084,-0.011,-0.090,0.053,0.036,-0.012,0.431,0.344,0.259,0.150,0.100
'0:00.669',0.094,0.084,-0.009,-0.089,0.051,0.038,-0.012,0.431,0.338,0.262,0.144,0.100
'0:00.670',0.093,0.088,-0.005,-0.090,0.049,0.041,-0.012,0.425,0.338,0.266,0.150,0.097
'0:00.671',0.091,0.091,0.000,-0.091,0.045,0.045,-0.012,0.419,0.338,0.262,0.150,0.094
'0:00.672',0.091,0.092,0.001,-0.091,0.044,0.046,-0.012,0.422,0.334,0.262,0.150,0.097
'0:00.673',0.091,0.094,0.003,-0.092,0.044,0.048,-0.012,0.419,0.331,0.262,0.150,0.100
'0:00.674',0.095,0.094,-0.001,-0.094,0.048,0.046,-0.016,0.416,0.331,0.259,0.153,0.097
'0:00.675',0.094,0.094,0.000,-0.094,0.047,0.047,-0.019,0.412,0.331,0.256,0.150,0.094
'0:00.676',0.094,0.095,0.001,-0.094,0.046,0.048,-0.019,0.412,0.334,0.259,0.150,0.097
'0:00.677',0.100,0.100,0.000,-0.100,0.050,0.050,-0.019,0.412,0.331,0.256,0.150,0.100
'0:00.678',0.098,0.103,0.005,-0.101,0.046,0.054,-0.019,0.406,0.325,0.259,0.147,0.097
'0:00.679',0.100,0.100,0.000,-0.100,0.050,0.050,-0.012,0.400,0.325,0.256,0.144,0.094
'0:00.680',0.099,0.104,0.006,-0.101,0.046,0.055,-0.009,0.400,0.325,0.259,0.144,0.094
'0:00.681',0.094,0.103,0.009,-0.098,0.042,0.056,-0.006,0.394,0.319,0.256,0.144,0.094
'0:00.682',0.094,0.100,0.006,-0.097,0.044,0.053,0.000,0.397,0.313,0.256,0.147,0.097
'0:00.683',0.094,0.100,0.006,-0.097,0.044,0.053,0.000,0.394,0.306,0.256,0.144,0.100
'0:00.684',0.091,0.100,0.009,-0.095,0.041,0.054,0.000,0.387,0.306,0.247,0.150,0.100
'0:00.685',0.091,0.103,0.013,-0.097,0.039,0.058,0.000,0.381,0.300,0.238,0.144,0.094
'0:00.686',0.095,0.104,0.009,-0.099,0.042,0.057,0.000,0.378,0.294,0.238,0.147,0.094
'0:00.687',0.097,0.106,0.009,-0.101,0.044,0.058,0.000,0.369,0.288,0.231,0.144,0.094
'0:00.688',0.093,0.108,0.015,-0.100,0.039,0.061,0.000,0.362,0.275,0.225,0.141,0.097
'0:00.689',0.091,0.106,0.016,-0.098,0.037,0.061,0.000,0.356,0.269,0.219,0.131,0.094
'0:00.690',0.086,0.105,0.019,-0.096,0.034,0.062,0.003,0.350,0.266,0.219,0.131,0.097
'0:00.691',0.084,0.100,0.016,-0.092,0.034,0.058,0.000,0.344,0.263,0.206,0.131,0.100
'0:00.692',0.080,0.099,0.019,-0.089,0.031,0.059,0.000,0.337,0.256,0.203,0.125,0.094
'0:00.693',0.075,0.097,0.022,-0.086,0.026,0.059,0.000,0.331,0.250,0.194,0.125,0.094
'0:00.694',0.074,0.098,0.024,-0.086,0.024,0.061,0.000,0.325,0.247,0.187,0.119,0.088
'0:00.695',0.069,0.097,0.028,-0.083,0.020,0.063,0.000,0.319,0.244,0.181,0.113,0.088
'0:00.696',0.067,0.098,0.031,-0.083,0.018,0.064,0.006,0.303,0.231,0.175,0.113,0.078
'0:00.697',0.066,0.097,0.031,-0.081,0.017,0.064,0.006,0.294,0.225,0.169,0.113,0.075
'0:00.698',0.064,0.093,0.029,-0.078,0.018,0.061,0.009,0.291,0.216,0.159,0.106,0.072
'0:00.699',0.062,0.088,0.025,-0.075,0.019,0.056,0.019,0.287,0.206,0.150,0.100,0.069
'0:00.700',0.064,0.084,0.021,-0.074,0.021,0.053,0.019,0.275,0.200,0.147,0.097,0.066
'0:00.701',0.062,0.084,0.022,-0.073,0.020,0.053,0.019,0.269,0.188,0.144,0.087,0.069
'0:00.702',0.061,0.086,0.024,-0.073,0.018,0.055,0.016,0.256,0.178,0.134,0.087,0.063
'0:00.703',0.056,0.084,0.028,-0.070,0.014,0.056,0.013,0.250,0.169,0.125,0.081,0.063
'0:00.704',0.055,0.081,0.026,-0.068,0.014,0.054,0.019,0.244,0.163,0.119,0.087,0.056
'0:00.705',0.050,0.078,0.028,-0.064,0.011,0.053,0.019,0.231,0.156,0.112,0.087,0.056
'0:00.706',0.046,0.075,0.029,-0.060,0.008,0.052,0.019,0.222,0.147,0.106,0.078,0.056
'0:00.707',0.041,0.072,0.031,-0.056,0.004,0.051,0.019,0.206,0.144,0.100,0.069,0.050
'0:00.708',0.039,0.064,0.026,-0.051,0.006,0.045,0.019,0.206,0.128,0.091,0.069,0.047
'0:00.709',0.038,0.063,0.025,-0.050,0.006,0.044,0.019,0.200,0.119,0.087,0.062,0.044
'0:00.710',0.034,0.058,0.024,-0.046,0.005,0.041,0.025,0.191,0.116,0.084,0.056,0.041
'0:00.711',0.031,0.053,0.022,-0.042,0.004,0.038,0.031,0.175,0.106,0.081,0.056,0.038
'0:00.712',0.027,0.047,0.020,-0.037,0.003,0.033,0.034,0.169,0.100,0.069,0.050,0.031
'0:00.713',0.022,0.041,0.019,-0.031,0.001,0.029,0.031,0.156,0.094,0.063,0.044,0.031
'0:00.714',0.016,0.036,0.021,-0.026,-0.003,0.028,0.031,0.150,0.081,0.053,0.037,0.028
'0:00.715',0.016,0.031,0.016,-0.023,0.000,0.023,0.031,0.138,0.075,0.050,0.031,0.031
'0:00.716',0.016,0.032,0.017,-0.024,-0.001,0.024,0.028,0.134,0.063,0.037,0.031,0.022
'0:00.717',0.016,0.031,0.016,-0.023,0.000,0.023,0.025,0.125,0.056,0.031,0.025,0.019
'0:00.718',0.014,0.029,0.016,-0.021,-0.001,0.023,0.028,0.116,0.047,0.025,0.016,0.012
'0:00.719',0.013,0.025,0.013,-0.019,0.000,0.019,0.031,0.106,0.038,0.019,0.012,0.012
'0:00.720',0.011,0.025,0.014,-0.018,-0.002,0.019,0.028,0.100,0.034,0.012,0.012,0.006
'0:00.721',0.009,0.025,0.016,-0.017,-0.003,0.020,0.025,0.088,0.031,0.006,0.006,0.006
'0:00.722',0.006,0.016,0.009,-0.011,-0.002,0.013,0.025,0.084,0.019,0.003,0.003,0.003
'0:00.723',0.003,0.006,0.003,-0.004,0.000,0.004,0.025,0.075,0.013,0.000,0.000,0.006
'0:00.724',0.004,0.008,0.003,-0.006,0.001,0.005,0.031,0.069,0.006,-0.006,0.000,0.006
'0:00.725',0.000,0.006,0.006,-0.003,-0.003,0.006,0.038,0.063,0.000,-0.012,-0.006,0.006
'0:00.726',0.000,0.004,0.004,-0.002,-0.003,0.004,0.038,0.050,-0.006,-0.022,-0.013,-0.003
'0:00.727',0.000,0.003,0.003,-0.001,-0.002,0.003,0.038,0.044,-0.012,-0.031,-0.013,-0.006
'0:00.728',0.000,0.002,0.002,-0.001,-0.001,0.002,0.038,0.031,-0.022,-0.041,-0.019,-0.012
'0:00.729',-0.003,-0.006,-0.003,0.005,0.000,-0.005,0.038,0.019,-0.019,-0.044,-0.019,-0.012
'0:00.730',-0.003,-0.006,-0.003,0.005,0.000,-0.005,0.038,0.016,-0.034,-0.047,-0.025,-0.019
'0:00.731',-0.006,-0.006,0.000,0.006,-0.003,-0.003,0.031,0.013,-0.037,-0.050,-0.025,-0.019
'0:00.732',-0.005,-0.008,-0.003,0.007,-0.001,-0.006,0.031,0.003,-0.041,-0.059,-0.031,-0.025
'0:00.733',-0.009,-0.009,0.000,0.009,-0.005,-0.005,0.031,0.000,-0.044,-0.063,-0.038,-0.025
'0:00.734',-0.009,-0.017,-0.007,0.013,-0.001,-0.013,0.031,-0.006,-0.050,-0.066,-0.038,-0.025
'0:00.735',-0.013,-0.019,-0.006,0.016,-0.003,-0.013,0.031,-0.006,-0.056,-0.069,-0.044,-0.031
'0:00.736',-0.014,-0.020,-0.006,0.017,-0.004,-0.013,0.031,-0.013,-0.059,-0.069,-0.041,-0.028
'0:00.737',-0.016,-0.025,-0.009,0.021,-0.003,-0.017,0.031,-0.019,-0.069,-0.075,-0.038,-0.031
'0:00.738',-0.014,-0.028,-0.014,0.021,-0.001,-0.021,0.034,-0.025,-0.075,-0.075,-0.044,-0.031
'0:00.739',-0.016,-0.028,-0.012,0.022,-0.002,-0.021,0.038,-0.031,-0.075,-0.081,-0.044,-0.031
'0:00.740',-0.016,-0.032,-0.017,0.024,0.001,-0.025,0.031,-0.038,-0.081,-0.088,-0.044,-0.041
'0:00.741',-0.016,-0.034,-0.019,0.025,0.001,-0.027,0.031,-0.038,-0.081,-0.088,-0.050,-0.044
'0:00.742',-0.020,-0.037,-0.017,0.029,-0.001,-0.027,0.028,-0.044,-0.088,-0.097,-0.050,-0.044
'0:00.743',-0.025,-0.044,-0.019,0.034,-0.003,-0.031,0.031,-0.050,-0.094,-0.100,-0.050,-0.044
'0:00.744',-0.028,-0.047,-0.019,0.038,-0.005,-0.033,0.028,-0.053,-0.094,-0.097,-0.050,-0.041
'0:00.745',-0.028,-0.047,-0.019,0.038,-0.005,-0.033,0.031,-0.063,-0.100,-0.100,-0.056,-0.037
'0:00.746',-0.025,-0.046,-0.021,0.036,-0.003,-0.033,0.028,-0.066,-0.097,-0.100,-0.056,-0.044
'0:00.747',-0.022,-0.044,-0.022,0.033,0.000,-0.033,0.025,-0.069,-0.100,-0.106,-0.063,-0.044
'0:00.748',-0.019,-0.044,-0.025,0.031,0.003,-0.034,0.025,-0.072,-0.106,-0.106,-0.063,-0.044
'0:00.749',-0.019,-0.047,-0.028,0.033,0.004,-0.037,0.025,-0.081,-0.106,-0.106,-0.063,-0.044
'0:00.750',-0.022,-0.047,-0.025,0.034,0.001,-0.036,0.025,-0.081,-0.106,-0.112,-0.063,-0.044
'0:00.751',-0.028,-0.053,-0.025,0.041,-0.002,-0.039,0.025,-0.081,-0.113,-0.112,-0.063,-0.044
'0:00.752',-0.033,-0.056,-0.024,0.044,-0.004,-0.040,0.028,-0.075,-0.116,-0.112,-0.069,-0.041
'0:00.753',-0.034,-0.056,-0.022,0.046,-0.006,-0.039,0.025,-0.075,-0.119,-0.112,-0.069,-0.044
'0:00.754',-0.034,-0.056,-0.022,0.046,-0.006,-0.039,0.028,-0.078,-0.122,-0.119,-0.069,-0.047
'0:00.755',-0.034,-0.056,-0.022,0.046,-0.006,-0.039,0.025,-0.088,-0.125,-0.119,-0.069,-0.050
'0:00.756',-0.033,-0.056,-0.023,0.045,-0.005,-0.040,0.025,-0.088,-0.122,-0.119,-0.072,-0.053
'0:00.757',-0.028,-0.056,-0.028,0.043,0.000,-0.042,0.025,-0.088,-0.125,-0.119,-0.075,-0.056
'0:00.758',-0.029,-0.059,-0.030,0.044,0.000,-0.045,0.019,-0.088,-0.125,-0.122,-0.081,-0.056
'0:00.759',-0.031,-0.056,-0.025,0.044,-0.003,-0.041,0.019,-0.088,-0.131,-0.125,-0.081,-0.056
'0:00.760',-0.034,-0.061,-0.026,0.048,-0.004,-0.044,0.019,-0.088,-0.134,-0.125,-0.072,-0.056
'0:00.761',-0.034,-0.063,-0.028,0.049,-0.003,-0.046,0.019,-0.094,-0.138,-0.131,-0.069,-0.056
'0:00.762',-0.031,-0.058,-0.027,0.045,-0.003,-0.042,0.025,-0.097,-0.138,-0.125,-0.078,-0.059
'0:00.763',-0.031,-0.056,-0.025,0.044,-0.003,-0.041,0.019,-0.100,-0.138,-0.125,-0.081,-0.062
'0:00.764',-0.033,-0.057,-0.025,0.045,-0.004,-0.041,0.028,-0.100,-0.138,-0.128,-0.081,-0.066
'0:00.765',-0.034,-0.063,-0.028,0.049,-0.003,-0.046,0.025,-0.100,-0.138,-0.125,-0.081,-0.062
'0:00.766',-0.033,-0.063,-0.029,0.048,-0.002,-0.046,0.028,-0.100,-0.134,-0.128,-0.081,-0.062
'0:00.767',-0.031,-0.063,-0.031,0.047,0.000,-0.047,0.025,-0.100,-0.131,-0.131,-0.081,-0.056
'0:00.768',-0.029,-0.063,-0.033,0.046,0.002,-0.048,0.028,-0.097,-0.138,-0.134,-0.081,-0.059
'0:00.769',-0.028,-0.063,-0.034,0.046,0.003,-0.049,0.025,-0.100,-0.138,-0.138,-0.081,-0.056
'0:00.770',-0.030,-0.063,-0.032,0.046,0.001,-0.047,0.028,-0.103,-0.138,-0.134,-0.081,-0.059
'0:00.771',-0.028,-0.063,-0.034,0.046,0.003,-0.049,0.019,-0.106,-0.138,-0.138,-0.081,-0.062
'0:00.772',-0.036,-0.066,-0.030,0.051,-0.003,-0.048,0.019,-0.109,-0.138,-0.134,-0.081,-0.062
'0:00.773',-0.041,-0.072,-0.031,0.056,-0.005,-0.052,0.019,-0.113,-0.138,-0.131,-0.081,-0.062
'0:00.774',-0.041,-0.073,-0.032,0.057,-0.004,-0.053,0.016,-0.109,-0.138,-0.134,-0.081,-0.062
'0:00.775',-0.041,-0.075,-0.034,0.058,-0.003,-0.055,0.019,-0.106,-0.138,-0.138,-0.081,-0.062
'0:00.776',-0.041,-0.075,-0.034,0.058,-0.003,-0.055,0.022,-0.106,-0.141,-0.131,-0.084,-0.062
'0:00.777',-0.041,-0.075,-0.034,0.058,-0.003,-0.055,0.025,-0.106,-0.144,-0.138,-0.088,-0.062
'0:00.778',-0.039,-0.074,-0.034,0.057,-0.003,-0.054,0.019,-0.106,-0.144,-0.138,-0.088,-0.062
'0:00.779',-0.037,-0.072,-0.034,0.055,-0.002,-0.053,0.019,-0.106,-0.144,-0.138,-0.088,-0.062
'0:00.780',-0.034,-0.072,-0.037,0.053,0.001,-0.055,0.019,-0.103,-0.144,-0.138,-0.088,-0.062
'0:00.781',-0.037,-0.075,-0.037,0.056,0.000,-0.056,0.019,-0.100,-0.144,-0.138,-0.088,-0.062
'0:00.782',-0.041,-0.076,-0.036,0.059,-0.003,-0.056,0.022,-0.100,-0.144,-0.138,-0.084,-0.062
'0:00.783',-0.044,-0.078,-0.034,0.061,-0.005,-0.056,0.019,-0.094,-0.144,-0.138,-0.081,-0.062
'0:00.784',-0.044,-0.075,-0.031,0.059,-0.006,-0.053,0.016,-0.103,-0.141,-0.138,-0.084,-0.062
'0:00.785',-0.044,-0.075,-0.031,0.059,-0.006,-0.053,0.019,-0.106,-0.138,-0.138,-0.088,-0.062
'0:00.786',-0.041,-0.075,-0.034,0.058,-0.003,-0.055,0.016,-0.103,-0.141,-0.131,-0.088,-0.062
'0:00.787',-0.041,-0.072,-0.031,0.056,-0.005,-0.052,0.019,-0.106,-0.144,-0.131,-0.088,-0.062
'0:00.788',-0.036,-0.066,-0.029,0.051,-0.004,-0.047,0.019,-0.103,-0.141,-0.134,-0.088,-0.066
'0:00.789',-0.034,-0.063,-0.028,0.049,-0.003,-0.046,0.019,-0.100,-0.138,-0.138,-0.088,-0.069
'0:00.790',-0.029,-0.063,-0.033,0.046,0.002,-0.048,0.013,-0.109,-0.138,-0.138,-0.084,-0.066
'0:00.791',-0.034,-0.066,-0.031,0.050,-0.002,-0.049,0.019,-0.106,-0.138,-0.138,-0.081,-0.062
'0:00.792',-0.034,-0.067,-0.032,0.051,-0.001,-0.050,0.022,-0.100,-0.138,-0.138,-0.081,-0.062
'0:00.793',-0.037,-0.069,-0.031,0.053,-0.003,-0.050,0.019,-0.100,-0.138,-0.138,-0.081,-0.062
'0:00.794',-0.042,-0.069,-0.027,0.056,-0.007,-0.048,0.019,-0.100,-0.138,-0.134,-0.081,-0.062
'0:00.795',-0.044,-0.069,-0.025,0.056,-0.009,-0.047,0.019,-0.100,-0.138,-0.131,-0.081,-0.062
'0:00.796',-0.041,-0.068,-0.027,0.054,-0.007,-0.047,0.016,-0.103,-0.131,-0.131,-0.084,-0.059
'0:00.797',-0.037,-0.066,-0.028,0.052,-0.005,-0.047,0.019,-0.100,-0.138,-0.131,-0.088,-0.056
'0:00.798',-0.034,-0.069,-0.034,0.052,0.000,-0.052,0.019,-0.100,-0.138,-0.134,-0.084,-0.056
'0:00.799',-0.034,-0.069,-0.034,0.052,0.000,-0.052,0.019,-0.100,-0.144,-0.138,-0.081,-0.056
'0:00.800',-0.036,-0.069,-0.033,0.052,-0.001,-0.051,0.019,-0.094,-0.141,-0.138,-0.084,-0.059
'0:00.801',-0.034,-0.069,-0.034,0.052,0.000,-0.052,0.019,-0.100,-0.138,-0.138,-0.088,-0.062
'0:00.802',-0.033,-0.069,-0.036,0.051,0.001,-0.053,0.019,-0.100,-0.141,-0.138,-0.088,-0.062
'0:00.803',-0.034,-0.066,-0.031,0.050,-0.002,-0.049,0.019,-0.100,-0.144,-0.138,-0.088,-0.062
'0:00.804',-0.034,-0.068,-0.033,0.051,-0.001,-0.051,0.019,-0.103,-0.141,-0.138,-0.084,-0.062
'0:00.805',-0.031,-0.066,-0.034,0.049,0.001,-0.050,0.025,-0.106,-0.138,-0.138,-0.081,-0.069
'0:00.806',-0.029,-0.067,-0.037,0.048,0.004,-0.053,0.025,-0.103,-0.138,-0.134,-0.078,-0.062
'0:00.807',-0.031,-0.066,-0.034,0.049,0.001,-0.050,0.031,-0.100,-0.138,-0.131,-0.081,-0.062
'0:00.808',-0.029,-0.067,-0.037,0.048,0.004,-0.053,0.034,-0.100,-0.134,-0.134,-0.088,-0.059
'0:00.809',-0.031,-0.069,-0.037,0.050,0.003,-0.053,0.038,-0.100,-0.131,-0.138,-0.088,-0.056
'0:00.810',-0.033,-0.066,-0.033,0.049,0.000,-0.049,0.034,-0.100,-0.134,-0.134,-0.084,-0.059
'0:00.811',-0.034,-0.066,-0.031,0.050,-0.002,-0.049,0.031,-0.106,-0.138,-0.131,-0.088,-0.062
'0:00.812',-0.034,-0.066,-0.031,0.050,-0.002,-0.049,0.028,-0.103,-0.138,-0.131,-0.088,-0.062
'0:00.813',-0.034,-0.066,-0.031,0.050,-0.002,-0.049,0.025,-0.100,-0.138,-0.131,-0.088,-0.062
'0:00.814',-0.033,-0.066,-0.032,0.049,-0.001,-0.049,0.025,-0.103,-0.134,-0.128,-0.081,-0.062
'0:00.815',-0.034,-0.066,-0.031,0.050,-0.002,-0.049,0.025,-0.100,-0.131,-0.125,-0.081,-0.062
'0:00.816',-0.036,-0.064,-0.029,0.050,-0.004,-0.047,0.025,-0.100,-0.134,-0.125,-0.081,-0.062
'0:00.817',-0.037,-0.066,-0.028,0.052,-0.005,-0.047,0.025,-0.100,-0.138,-0.125,-0.081,-0.062
'0:00.818',-0.034,-0.064,-0.030,0.049,-0.003,-0.047,0.025,-0.100,-0.141,-0.125,-0.081,-0.062
'0:00.819',-0.031,-0.063,-0.031,0.047,0.000,-0.047,0.025,-0.100,-0.144,-0.125,-0.081,-0.062
'0:00.820',-0.028,-0.058,-0.030,0.043,0.001,-0.044,0.025,-0.100,-0.144,-0.125,-0.081,-0.062
'0:00.821',-0.028,-0.059,-0.031,0.044,0.001,-0.046,0.025,-0.100,-0.144,-0.125,-0.081,-0.062
'0:00.822',-0.028,-0.063,-0.034,0.046,0.003,-0.049,0.025,-0.097,-0.144,-0.131,-0.081,-0.062
'0:00.823',-0.028,-0.063,-0.034,0.046,0.003,-0.049,0.031,-0.100,-0.144,-0.138,-0.081,-0.062
'0:00.824',-0.028,-0.063,-0.034,0.046,0.003,-0.049,0.031,-0.097,-0.147,-0.141,-0.088,-0.062
'0:00.825',-0.031,-0.066,-0.034,0.049,0.001,-0.050,0.031,-0.106,-0.150,-0.144,-0.081,-0.062
'0:00.826',-0.028,-0.066,-0.037,0.047,0.004,-0.052,0.025,-0.103,-0.147,-0.141,-0.081,-0.066
'0:00.827',-0.031,-0.066,-0.034,0.049,0.001,-0.050,0.031,-0.106,-0.144,-0.138,-0.081,-0.062
'0:00.828',-0.033,-0.067,-0.034,0.050,0.001,-0.051,0.028,-0.103,-0.131,-0.138,-0.084,-0.059
'0:00.829',-0.031,-0.069,-0.037,0.050,0.003,-0.053,0.031,-0.100,-0.131,-0.138,-0.088,-0.062
'0:00.830',-0.031,-0.066,-0.034,0.049,0.001,-0.050,0.031,-0.100,-0.131,-0.134,-0.084,-0.062
'0:00.831',-0.031,-0.066,-0.034,0.049,0.001,-0.050,0.031,-0.100,-0.131,-0.131,-0.088,-0.062
'0:00.832',-0.033,-0.067,-0.034,0.050,0.001,-0.051,0.031,-0.106,-0.131,-0.134,-0.084,-0.062
'0:00.833',-0.034,-0.069,-0.034,0.052,0.000,-0.052,0.031,-0.106,-0.131,-0.125,-0.088,-0.062
'0:00.834',-0.036,-0.072,-0.036,0.054,-0.001,-0.054,0.028,-0.106,-0.131,-0.131,-0.088,-0.062
'0:00.835',-0.037,-0.072,-0.034,0.055,-0.002,-0.053,0.031,-0.106,-0.131,-0.131,-0.088,-0.062
'0:00.836',-0.034,-0.068,-0.033,0.051,-0.001,-0.051,0.031,-0.106,-0.131,-0.131,-0.088,-0.062
'0:00.837',-0.034,-0.066,-0.031,0.050,-0.002,-0.049,0.025,-0.106,-0.138,-0.131,-0.094,-0.062
'0:00.838',-0.033,-0.064,-0.031,0.049,-0.001,-0.048,0.025,-0.106,-0.138,-0.131,-0.094,-0.062
'0:00.839',-0.031,-0.066,-0.034,0.049,0.001,-0.050,0.025,-0.113,-0.138,-0.131,-0.094,-0.062
'0:00.840',-0.033,-0.066,-0.033,0.049,0.000,-0.049,0.028,-0.103,-0.138,-0.131,-0.097,-0.062
'0:00.841',-0.031,-0.063,-0.031,0.047,0.000,-0.047,0.031,-0.106,-0.138,-0.131,-0.100,-0.062
'0:00.842',-0.031,-0.063,-0.031,0.047,0.000,-0.047,0.028,-0.106,-0.147,-0.138,-0.097,-0.059
'0:00.843',-0.031,-0.059,-0.028,0.046,-0.002,-0.044,0.025,-0.106,-0.150,-0.138,-0.094,-0.062
'0:00.844',-0.034,-0.059,-0.025,0.047,-0.005,-0.042,0.025,-0.106,-0.141,-0.138,-0.094,-0.066
'0:00.845',-0.031,-0.066,-0.034,0.049,0.001,-0.050,0.025,-0.106,-0.144,-0.138,-0.094,-0.069
'0:00.846',-0.033,-0.066,-0.032,0.049,-0.001,-0.049,0.022,-0.106,-0.144,-0.141,-0.094,-0.066
'0:00.847',-0.031,-0.066,-0.034,0.049,0.001,-0.050,0.025,-0.106,-0.144,-0.144,-0.094,-0.069
'0:00.848',-0.031,-0.066,-0.034,0.049,0.001,-0.050,0.028,-0.106,-0.144,-0.138,-0.091,-0.066
'0:00.849',-0.031,-0.066,-0.034,0.049,0.001,-0.050,0.025,-0.113,-0.144,-0.144,-0.094,-0.069
'0:00.850',-0.029,-0.066,-0.036,0.048,0.003,-0.051,0.025,-0.113,-0.144,-0.141,-0.097,-0.069
'0:00.851',-0.031,-0.069,-0.037,0.050,0.003,-0.053,0.025,-0.113,-0.150,-0.144,-0.100,-0.069
'0:00.852',-0.034,-0.070,-0.036,0.052,0.001,-0.053,0.022,-0.109,-0.150,-0.144,-0.094,-0.072
'0:00.853',-0.037,-0.072,-0.034,0.055,-0.002,-0.053,0.019,-0.106,-0.150,-0.144,-0.100,-0.075
'0:00.854',-0.039,-0.072,-0.033,0.056,-0.003,-0.053,0.019,-0.116,-0.153,-0.144,-0.100,-0.075
'0:00.855',-0.037,-0.072,-0.034,0.055,-0.002,-0.053,0.019,-0.119,-0.156,-0.144,-0.100,-0.075
'0:00.856',-0.037,-0.072,-0.034,0.055,-0.002,-0.053,0.019,-0.119,-0.153,-0.144,-0.100,-0.075
'0:00.857',-0.037,-0.072,-0.034,0.055,-0.002,-0.053,0.019,-0.119,-0.156,-0.144,-0.100,-0.075
'0:00.858',-0.033,-0.071,-0.037,0.052,0.002,-0.054,0.019,-0.122,-0.156,-0.144,-0.097,-0.072
'0:00.859',-0.034,-0.069,-0.034,0.052,0.000,-0.052,0.019,-0.125,-0.156,-0.144,-0.094,-0.069
'0:00.860',-0.033,-0.071,-0.037,0.052,0.002,-0.054,0.019,-0.122,-0.156,-0.150,-0.097,-0.075
'0:00.861',-0.034,-0.072,-0.037,0.053,0.001,-0.055,0.025,-0.119,-0.156,-0.150,-0.100,-0.075
'0:00.862',-0.034,-0.072,-0.037,0.053,0.001,-0.055,0.022,-0.122,-0.163,-0.153,-0.100,-0.069
'0:00.863',-0.034,-0.072,-0.037,0.053,0.001,-0.055,0.025,-0.125,-0.156,-0.150,-0.100,-0.069
'0:00.864',-0.033,-0.072,-0.039,0.052,0.002,-0.056,0.022,-0.131,-0.163,-0.156,-0.100,-0.075
'0:00.865',-0.034,-0.072,-0.037,0.053,0.001,-0.055,0.019,-0.131,-0.163,-0.156,-0.100,-0.075
'0:00.866',-0.030,-0.071,-0.041,0.051,0.005,-0.056,0.022,-0.134,-0.159,-0.156,-0.097,-0.075
'0:00.867',-0.028,-0.072,-0.044,0.050,0.007,-0.058,0.025,-0.138,-0.156,-0.156,-0.094,-0.069
'0:00.868',-0.031,-0.072,-0.041,0.052,0.004,-0.056,0.025,-0.138,-0.163,-0.156,-0.103,-0.075
'0:00.869',-0.031,-0.072,-0.041,0.052,0.004,-0.056,0.025,-0.144,-0.163,-0.156,-0.106,-0.075
'0:00.870',-0.030,-0.072,-0.042,0.051,0.006,-0.057,0.025,-0.134,-0.166,-0.159,-0.106,-0.078
'0:00.871',-0.031,-0.072,-0.041,0.052,0.004,-0.056,0.025,-0.138,-0.169,-0.156,-0.106,-0.081
'0:00.872',-0.031,-0.072,-0.041,0.052,0.004,-0.056,0.025,-0.138,-0.166,-0.156,-0.103,-0.075
'0:00.873',-0.031,-0.072,-0.041,0.052,0.004,-0.056,0.025,-0.138,-0.169,-0.156,-0.106,-0.075
'0:00.874',-0.033,-0.074,-0.041,0.053,0.004,-0.057,0.025,-0.134,-0.169,-0.159,-0.097,-0.075
'0:00.875',-0.034,-0.075,-0.041,0.055,0.003,-0.058,0.025,-0.131,-0.169,-0.163,-0.100,-0.069
'0:00.876',-0.036,-0.079,-0.044,0.058,0.004,-0.062,0.028,-0.138,-0.169,-0.163,-0.100,-0.072
'0:00.877',-0.037,-0.081,-0.044,0.059,0.003,-0.062,0.031,-0.138,-0.169,-0.163,-0.100,-0.069
'0:00.878',-0.036,-0.081,-0.045,0.059,0.004,-0.063,0.031,-0.138,-0.172,-0.169,-0.103,-0.072
'0:00.879',-0.037,-0.084,-0.047,0.061,0.004,-0.066,0.025,-0.138,-0.181,-0.169,-0.106,-0.075
'0:00.880',-0.036,-0.083,-0.047,0.059,0.006,-0.066,0.025,-0.144,-0.175,-0.169,-0.106,-0.075
'0:00.881',-0.037,-0.081,-0.044,0.059,0.003,-0.062,0.031,-0.138,-0.175,-0.169,-0.106,-0.075
'0:00.882',-0.039,-0.086,-0.047,0.063,0.004,-0.066,0.028,-0.141,-0.178,-0.169,-0.106,-0.078
'0:00.883',-0.037,-0.084,-0.047,0.061,0.004,-0.066,0.025,-0.144,-0.175,-0.169,-0.106,-0.081
'0:00.884',-0.037,-0.086,-0.049,0.062,0.006,-0.067,0.025,-0.144,-0.178,-0.178,-0.106,-0.081
'0:00.885',-0.034,-0.084,-0.050,0.059,0.007,-0.067,0.025,-0.144,-0.181,-0.175,-0.106,-0.081
'0:00.886',-0.034,-0.084,-0.050,0.059,0.007,-0.067,0.025,-0.141,-0.184,-0.181,-0.109,-0.081
'0:00.887',-0.034,-0.088,-0.053,0.061,0.009,-0.071,0.025,-0.144,-0.188,-0.175,-0.113,-0.081
'0:00.888',-0.037,-0.088,-0.050,0.063,0.006,-0.069,0.025,-0.144,-0.188,-0.178,-0.113,-0.078
'0:00.889',-0.041,-0.088,-0.047,0.064,0.003,-0.067,0.025,-0.144,-0.188,-0.175,-0.119,-0.075
'0:00.890',-0.039,-0.086,-0.047,0.063,0.004,-0.067,0.022,-0.144,-0.184,-0.175,-0.122,-0.081
'0:00.891',-0.037,-0.084,-0.047,0.061,0.004,-0.066,0.019,-0.150,-0.188,-0.175,-0.125,-0.081
'0:00.892',-0.039,-0.082,-0.044,0.061,0.002,-0.063,0.019,-0.153,-0.188,-0.181,-0.122,-0.081
'0:00.893',-0.037,-0.084,-0.047,0.061,0.004,-0.066,0.019,-0.156,-0.188,-0.181,-0.119,-0.094
'0:00.894',-0.037,-0.084,-0.047,0.061,0.004,-0.066,0.019,-0.156,-0.188,-0.181,-0.119,-0.084
'0:00.895',-0.034,-0.084,-0.050,0.059,0.007,-0.067,0.019,-0.156,-0.188,-0.175,-0.119,-0.088
'0:00.896',-0.033,-0.086,-0.053,0.060,0.010,-0.070,0.013,-0.156,-0.194,-0.181,-0.119,-0.091
'0:00.897',-0.034,-0.088,-0.053,0.061,0.009,-0.071,0.013,-0.156,-0.194,-0.181,-0.119,-0.094
'0:00.898',-0.036,-0.086,-0.051,0.061,0.007,-0.069,0.013,-0.156,-0.200,-0.184,-0.119,-0.097
'0:00.899',-0.034,-0.084,-0.050,0.059,0.007,-0.067,0.019,-0.163,-0.206,-0.187,-0.125,-0.100
'0:00.900',-0.034,-0.088,-0.053,0.061,0.009,-0.071,0.016,-0.153,-0.206,-0.191,-0.119,-0.097
'0:00.901',-0.034,-0.084,-0.050,0.059,0.007,-0.067,0.013,-0.156,-0.206,-0.194,-0.125,-0.094
'0:00.902',-0.036,-0.091,-0.055,0.063,0.009,-0.073,0.006,-0.156,-0.203,-0.194,-0.125,-0.091
'0:00.903',-0.041,-0.094,-0.053,0.068,0.006,-0.074,0.013,-0.156,-0.200,-0.194,-0.125,-0.088
'0:00.904',-0.044,-0.089,-0.046,0.067,0.001,-0.067,0.019,-0.156,-0.200,-0.187,-0.125,-0.088
'0:00.905',-0.044,-0.091,-0.047,0.068,0.001,-0.069,0.019,-0.156,-0.200,-0.187,-0.125,-0.088
'0:00.906',-0.039,-0.091,-0.051,0.065,0.006,-0.071,0.016,-0.163,-0.197,-0.184,-0.125,-0.088
'0:00.907',-0.037,-0.094,-0.056,0.066,0.009,-0.075,0.013,-0.156,-0.194,-0.194,-0.125,-0.088
'0:00.908',-0.034,-0.091,-0.056,0.063,0.011,-0.074,0.013,-0.163,-0.200,-0.191,-0.128,-0.088
'0:00.909',-0.034,-0.094,-0.059,0.064,0.012,-0.077,0.019,-0.163,-0.200,-0.187,-0.131,-0.094
'0:00.910',-0.037,-0.089,-0.052,0.064,0.007,-0.071,0.016,-0.166,-0.203,-0.191,-0.134,-0.088
'0:00.911',-0.037,-0.088,-0.050,0.063,0.006,-0.069,0.013,-0.163,-0.206,-0.187,-0.138,-0.088
'0:00.912',-0.034,-0.089,-0.054,0.062,0.010,-0.072,0.016,-0.163,-0.206,-0.187,-0.134,-0.088
'0:00.913',-0.034,-0.088,-0.053,0.061,0.009,-0.071,0.019,-0.163,-0.206,-0.187,-0.131,-0.088
'0:00.914',-0.037,-0.091,-0.053,0.064,0.007,-0.072,0.019,-0.163,-0.209,-0.187,-0.131,-0.084
'0:00.915',-0.037,-0.091,-0.053,0.064,0.007,-0.072,0.019,-0.163,-0.206,-0.187,-0.131,-0.081
'0:00.916',-0.039,-0.088,-0.049,0.063,0.005,-0.068,0.019,-0.163,-0.209,-0.191,-0.131,-0.088
'0:00.917',-0.037,-0.088,-0.050,0.063,0.006,-0.069,0.019,-0.163,-0.213,-0.187,-0.125,-0.094
'0:00.918',-0.036,-0.088,-0.051,0.062,0.007,-0.069,0.019,-0.159,-0.209,-0.191,-0.131,-0.097
'0:00.919',-0.034,-0.088,-0.053,0.061,0.009,-0.071,0.019,-0.156,-0.206,-0.194,-0.131,-0.100
'0:00.920',-0.034,-0.089,-0.055,0.062,0.010,-0.072,0.019,-0.166,-0.213,-0.194,-0.131,-0.100
'0:00.921',-0.034,-0.091,-0.056,0.063,0.011,-0.074,0.019,-0.169,-0.213,-0.194,-0.131,-0.100
'0:00.922',-0.036,-0.092,-0.056,0.064,0.010,-0.074,0.022,-0.166,-0.213,-0.197,-0.131,-0.100
'0:00.923',-0.031,-0.091,-0.059,0.061,0.014,-0.075,0.025,-0.169,-0.213,-0.200,-0.131,-0.100
'0:00.924',-0.027,-0.089,-0.062,0.058,0.018,-0.076,0.022,-0.166,-0.206,-0.197,-0.128,-0.097
'0:00.925',-0.025,-0.088,-0.062,0.056,0.019,-0.075,0.019,-0.163,-0.206,-0.187,-0.125,-0.094
'0:00.926',-0.023,-0.086,-0.063,0.055,0.020,-0.075,0.019,-0.163,-0.206,-0.187,-0.128,-0.094
'0:00.927',-0.025,-0.081,-0.056,0.053,0.016,-0.069,0.019,-0.156,-0.206,-0.187,-0.125,-0.094
'0:00.928',-0.022,-0.078,-0.056,0.050,0.017,-0.067,0.022,-0.163,-0.197,-0.191,-0.125,-0.091
'0:00.929',-0.019,-0.069,-0.050,0.044,0.016,-0.059,0.019,-0.163,-0.194,-0.187,-0.125,-0.094
'0:00.930',-0.022,-0.059,-0.037,0.041,0.007,-0.049,0.034,-0.153,-0.188,-0.175,-0.113,-0.084
'0:00.931',-0.022,-0.047,-0.025,0.034,0.001,-0.036,0.044,-0.144,-0.175,-0.163,-0.106,-0.075
'0:00.932',-0.020,-0.031,-0.011,0.026,-0.004,-0.021,0.053,-0.128,-0.169,-0.150,-0.097,-0.069
'0:00.933',-0.022,-0.022,0.000,0.022,-0.011,-0.011,0.063,-0.119,-0.163,-0.150,-0.088,-0.062
'0:00.934',-0.025,-0.012,0.013,0.019,-0.019,0.000,0.066,-0.122,-0.153,-0.147,-0.084,-0.059
'0:00.935',-0.025,-0.006,0.019,0.016,-0.022,0.006,0.063,-0.119,-0.150,-0.144,-0.081,-0.056
'0:00.936',-0.021,0.001,0.022,0.010,-0.021,0.011,0.063,-0.119,-0.144,-0.147,-0.078,-0.053
'0:00.937',-0.019,0.006,0.025,0.006,-0.022,0.016,0.063,-0.113,-0.144,-0.144,-0.075,-0.050
'0:00.938',-0.019,0.012,0.031,0.003,-0.025,0.022,0.069,-0.109,-0.141,-0.141,-0.069,-0.053
'0:00.939',-0.019,0.022,0.041,-0.001,-0.030,0.031,0.069,-0.106,-0.144,-0.138,-0.069,-0.050
'0:00.940',-0.019,0.021,0.039,-0.001,-0.029,0.030,0.072,-0.103,-0.144,-0.138,-0.072,-0.047
'0:00.941',-0.022,0.019,0.041,0.002,-0.031,0.029,0.075,-0.106,-0.144,-0.138,-0.075,-0.044
'0:00.942',-0.023,0.019,0.042,0.003,-0.033,0.030,0.084,-0.106,-0.147,-0.138,-0.075,-0.041
'0:00.943',-0.025,0.019,0.044,0.003,-0.034,0.031,0.088,-0.106,-0.150,-0.138,-0.075,-0.037
'0:00.944',-0.025,0.016,0.041,0.005,-0.033,0.028,0.088,-0.109,-0.150,-0.134,-0.075,-0.044
'0:00.945',-0.025,0.012,0.038,0.006,-0.031,0.025,0.088,-0.106,-0.150,-0.138,-0.081,-0.044
'0:00.946',-0.022,0.006,0.028,0.008,-0.025,0.017,0.084,-0.109,-0.144,-0.138,-0.081,-0.050
'0:00.947',-0.019,0.006,0.025,0.006,-0.022,0.016,0.081,-0.106,-0.144,-0.138,-0.081,-0.050
'0:00.948',-0.016,0.005,0.021,0.006,-0.018,0.013,0.081,-0.113,-0.144,-0.144,-0.081,-0.044
'0:00.949',-0.016,0.006,0.022,0.005,-0.019,0.014,0.081,-0.113,-0.144,-0.150,-0.081,-0.044
'0:00.950',-0.014,0.012,0.026,0.001,-0.020,0.019,0.081,-0.106,-0.144,-0.141,-0.081,-0.053
'0:00.951',-0.016,0.019,0.034,-0.001,-0.025,0.026,0.075,-0.106,-0.150,-0.138,-0.075,-0.056
'0:00.952',-0.013,0.024,0.036,-0.006,-0.024,0.030,0.084,-0.100,-0.141,-0.131,-0.078,-0.047
'0:00.953',-0.013,0.025,0.038,-0.006,-0.025,0.031,0.081,-0.100,-0.138,-0.131,-0.075,-0.044
'0:00.954',-0.016,0.032,0.048,-0.008,-0.032,0.040,0.078,-0.091,-0.138,-0.128,-0.069,-0.037
'0:00.955',-0.016,0.041,0.056,-0.013,-0.036,0.048,0.075,-0.094,-0.144,-0.131,-0.069,-0.037
'0:00.956',-0.016,0.049,0.064,-0.016,-0.040,0.056,0.075,-0.088,-0.138,-0.125,-0.059,-0.031
'0:00.957',-0.013,0.059,0.072,-0.023,-0.043,0.066,0.075,-0.088,-0.138,-0.125,-0.050,-0.031
'0:00.958',-0.009,0.069,0.078,-0.029,-0.044,0.073,0.075,-0.081,-0.128,-0.116,-0.050,-0.022
'0:00.959',-0.006,0.078,0.084,-0.036,-0.046,0.081,0.075,-0.081,-0.125,-0.112,-0.044,-0.012
'0:00.960',-0.009,0.081,0.091,-0.036,-0.050,0.086,0.078,-0.081,-0.122,-0.106,-0.034,-0.006
'0:00.961',-0.013,0.081,0.094,-0.034,-0.053,0.088,0.075,-0.081,-0.119,-0.106,-0.031,-0.006
'0:00.962',-0.009,0.088,0.097,-0.039,-0.053,0.092,0.069,-0.084,-0.122,-0.109,-0.034,-0.003
'0:00.963',-0.006,0.097,0.103,-0.045,-0.055,0.100,0.069,-0.081,-0.125,-0.112,-0.031,-0.006
'0:00.964',-0.006,0.106,0.113,-0.050,-0.059,0.109,0.069,-0.075,-0.116,-0.103,-0.031,0.000
'0:00.965',-0.003,0.116,0.119,-0.056,-0.061,0.117,0.069,-0.081,-0.113,-0.100,-0.031,0.000
'0:00.966',-0.002,0.116,0.118,-0.057,-0.060,0.116,0.066,-0.078,-0.109,-0.100,-0.031,0.000
'0:00.967',0.000,0.116,0.116,-0.058,-0.058,0.116,0.069,-0.075,-0.106,-0.100,-0.031,0.000
'0:00.968',-0.004,0.116,0.120,-0.056,-0.062,0.118,0.066,-0.088,-0.116,-0.097,-0.031,0.000
'0:00.969',-0.003,0.116,0.119,-0.056,-0.061,0.117,0.063,-0.094,-0.119,-0.100,-0.031,0.000
'0:00.970',-0.004,0.119,0.123,-0.057,-0.064,0.121,0.053,-0.097,-0.119,-0.097,-0.031,0.000
'0:00.971',-0.003,0.119,0.122,-0.058,-0.062,0.120,0.050,-0.100,-0.119,-0.100,-0.025,0.006
'0:00.972',0.000,0.125,0.125,-0.063,-0.062,0.125,0.047,-0.094,-0.113,-0.100,-0.022,0.006
'0:00.973',0.000,0.128,0.128,-0.064,-0.064,0.128,0.044,-0.088,-0.113,-0.094,-0.013,0.012
'0:00.974',0.003,0.127,0.124,-0.065,-0.061,0.125,0.053,-0.084,-0.109,-0.094,-0.013,0.016
'0:00.975',0.003,0.125,0.122,-0.064,-0.059,0.123,0.050,-0.081,-0.113,-0.088,-0.013,0.019
'0:00.976',0.005,0.125,0.120,-0.065,-0.058,0.123,0.050,-0.081,-0.103,-0.088,-0.016,0.019
'0:00.977',0.006,0.122,0.116,-0.064,-0.055,0.119,0.050,-0.075,-0.100,-0.088,-0.013,0.019
'0:00.978',0.006,0.125,0.119,-0.066,-0.056,0.122,0.053,-0.075,-0.100,-0.088,-0.013,0.019
'0:00.979',0.009,0.125,0.116,-0.067,-0.053,0.120,0.056,-0.075,-0.094,-0.081,-0.013,0.025
'0:00.980',0.009,0.119,0.109,-0.064,-0.050,0.114,0.056,-0.075,-0.091,-0.081,-0.013,0.025
'0:00.981',0.009,0.116,0.106,-0.063,-0.049,0.111,0.056,-0.075,-0.094,-0.081,-0.013,0.025
'0:00.982',0.006,0.113,0.106,-0.059,-0.050,0.109,0.050,-0.078,-0.091,-0.078,-0.009,0.016
'0:00.983',0.003,0.106,0.103,-0.054,-0.050,0.104,0.050,-0.081,-0.088,-0.081,-0.006,0.019
'0:00.984',0.003,0.106,0.103,-0.054,-0.050,0.104,0.047,-0.078,-0.094,-0.075,-0.006,0.012
'0:00.985',0.003,0.106,0.103,-0.054,-0.050,0.104,0.044,-0.081,-0.100,-0.081,-0.006,0.019
'0:00.986',0.001,0.109,0.108,-0.055,-0.054,0.109,0.047,-0.081,-0.100,-0.081,-0.006,0.022
'0:00.987',0.000,0.109,0.109,-0.054,-0.055,0.109,0.050,-0.081,-0.106,-0.081,-0.006,0.025
'0:00.988',-0.004,0.104,0.109,-0.050,-0.057,0.106,0.047,-0.078,-0.103,-0.081,-0.009,0.019
'0:00.989',-0.006,0.103,0.109,-0.048,-0.058,0.106,0.044,-0.081,-0.100,-0.081,-0.006,0.019
'0:00.990',-0.003,0.095,0.098,-0.046,-0.051,0.096,0.047,-0.084,-0.109,-0.084,-0.016,0.016
'0:00.991',-0.006,0.091,0.097,-0.042,-0.052,0.094,0.050,-0.094,-0.119,-0.088,-0.025,0.012
'0:00.992',-0.009,0.078,0.088,-0.034,-0.049,0.083,0.050,-0.100,-0.116,-0.097,-0.025,0.006
'0:00.993',-0.013,0.063,0.075,-0.025,-0.044,0.069,0.050,-0.100,-0.119,-0.106,-0.031,0.006
'0:00.994',-0.013,0.050,0.063,-0.019,-0.038,0.056,0.050,-0.103,-0.125,-0.106,-0.044,-0.003
'0:00.995',-0.013,0.034,0.047,-0.011,-0.030,0.041,0.050,-0.106,-0.131,-0.112,-0.050,-0.006
'0:00.996',-0.019,0.025,0.044,-0.003,-0.031,0.034,0.044,-0.113,-0.134,-0.119,-0.056,-0.012
'0:00.997',-0.025,0.016,0.041,0.005,-0.033,0.028,0.044,-0.119,-0.138,-0.125,-0.063,-0.019
'0:00.998',-0.031,0.003,0.034,0.014,-0.033,0.019,0.038,-0.125,-0.138,-0.125,-0.063,-0.022
'0:00.999',-0.037,-0.012,0.025,0.025,-0.031,0.006,0.038,-0.131,-0.144,-0.131,-0.063,-0.025
'0:01.000',-0.037,-0.032,0.005,0.035,-0.021,-0.014,0.041,-0.134,-0.153,-0.134,-0.075,-0.031
'0:01.001',-0.044,-0.053,-0.009,0.049,-0.018,-0.031,0.038,-0.138,-0.163,-0.150,-0.081,-0.044
'0:01.002',-0.047,-0.061,-0.014,0.054,-0.016,-0.038,0.038,-0.147,-0.172,-0.156,-0.091,-0.053
'0:01.003',-0.050,-0.072,-0.022,0.061,-0.014,-0.047,0.038,-0.150,-0.175,-0.156,-0.100,-0.062
'0:01.004',-0.051,-0.081,-0.030,0.066,-0.011,-0.056,0.038,-0.147,-0.181,-0.159,-0.106,-0.069
'0:01.005',-0.053,-0.091,-0.037,0.072,-0.008,-0.064,0.038,-0.150,-0.181,-0.156,-0.106,-0.075
'0:01.006',-0.054,-0.098,-0.044,0.076,-0.006,-0.071,0.031,-0.156,-0.188,-0.169,-0.116,-0.078
'0:01.007',-0.053,-0.106,-0.053,0.080,0.000,-0.080,0.025,-0.163,-0.194,-0.175,-0.125,-0.081
'0:01.008',-0.052,-0.109,-0.058,0.081,0.002,-0.084,0.025,-0.169,-0.197,-0.181,-0.128,-0.081
'0:01.009',-0.053,-0.113,-0.059,0.083,0.003,-0.086,0.025,-0.175,-0.200,-0.181,-0.131,-0.088
'0:01.010',-0.058,-0.116,-0.058,0.087,-0.001,-0.087,0.025,-0.178,-0.209,-0.191,-0.141,-0.091
'0:01.011',-0.056,-0.122,-0.066,0.089,0.004,-0.094,0.025,-0.181,-0.213,-0.194,-0.144,-0.100
'0:01.012',-0.056,-0.123,-0.067,0.090,0.005,-0.095,0.022,-0.191,-0.219,-0.200,-0.144,-0.100
'0:01.013',-0.056,-0.128,-0.072,0.093,0.007,-0.100,0.019,-0.194,-0.219,-0.200,-0.150,-0.106
'0:01.014',-0.061,-0.136,-0.074,0.099,0.006,-0.105,0.019,-0.197,-0.225,-0.197,-0.150,-0.109
'0:01.015',-0.056,-0.141,-0.084,0.099,0.014,-0.112,0.025,-0.194,-0.225,-0.200,-0.150,-0.112
'0:01.016',-0.056,-0.144,-0.087,0.100,0.016,-0.116,0.028,-0.197,-0.231,-0.206,-0.156,-0.116
'0:01.017',-0.059,-0.147,-0.087,0.103,0.014,-0.117,0.025,-0.194,-0.231,-0.206,-0.156,-0.112
'0:01.018',-0.062,-0.151,-0.089,0.107,0.013,-0.120,0.022,-0.197,-0.231,-0.209,-0.153,-0.112
'0:01.019',-0.066,-0.156,-0.091,0.111,0.012,-0.124,0.019,-0.200,-0.231,-0.219,-0.156,-0.112
'0:01.020',-0.067,-0.157,-0.091,0.113,0.012,-0.124,0.022,-0.203,-0.238,-0.219,-0.159,-0.112
'0:01.021',-0.069,-0.159,-0.091,0.114,0.011,-0.125,0.019,-0.200,-0.238,-0.219,-0.162,-0.119
'0:01.022',-0.069,-0.162,-0.094,0.116,0.012,-0.128,0.016,-0.203,-0.238,-0.222,-0.166,-0.122
'0:01.023',-0.069,-0.166,-0.097,0.117,0.014,-0.131,0.013,-0.206,-0.244,-0.225,-0.169,-0.125
'0:01.024',-0.068,-0.164,-0.097,0.116,0.014,-0.131,0.013,-0.213,-0.244,-0.228,-0.166,-0.122
'0:01.025',-0.066,-0.162,-0.097,0.114,0.016,-0.130,0.013,-0.213,-0.244,-0.225,-0.169,-0.119
'0:01.026',-0.067,-0.168,-0.101,0.117,0.017,-0.134,0.013,-0.213,-0.241,-0.225,-0.172,-0.125
'0:01.027',-0.069,-0.162,-0.094,0.116,0.012,-0.128,0.013,-0.213,-0.238,-0.225,-0.175,-0.119
'0:01.028',-0.066,-0.166,-0.100,0.116,0.017,-0.133,0.009,-0.216,-0.244,-0.228,-0.175,-0.119
'0:01.029',-0.062,-0.162,-0.100,0.113,0.019,-0.131,0.006,-0.219,-0.250,-0.231,-0.175,-0.125
'0:01.030',-0.059,-0.162,-0.103,0.111,0.022,-0.133,0.009,-0.219,-0.247,-0.231,-0.175,-0.125
'0:01.031',-0.062,-0.162,-0.100,0.113,0.019,-0.131,0.013,-0.219,-0.250,-0.231,-0.175,-0.125
'0:01.032',-0.064,-0.162,-0.099,0.113,0.018,-0.131,0.013,-0.216,-0.244,-0.234,-0.175,-0.128
'0:01.033',-0.066,-0.162,-0.097,0.114,0.016,-0.130,0.013,-0.213,-0.244,-0.238,-0.175,-0.131
'0:01.034',-0.061,-0.162,-0.101,0.112,0.020,-0.132,0.009,-0.219,-0.253,-0.238,-0.172,-0.134
'0:01.035',-0.056,-0.162,-0.106,0.109,0.025,-0.134,0.006,-0.219,-0.256,-0.238,-0.175,-0.137
'0:01.036',-0.058,-0.164,-0.106,0.111,0.024,-0.135,0.006,-0.222,-0.256,-0.238,-0.175,-0.137
'0:01.037',-0.059,-0.166,-0.106,0.113,0.023,-0.136,0.006,-0.225,-0.256,-0.244,-0.175,-0.137
'0:01.038',-0.069,-0.170,-0.101,0.119,0.016,-0.136,0.013,-0.216,-0.256,-0.244,-0.175,-0.131
'0:01.039',-0.072,-0.175,-0.103,0.124,0.016,-0.139,0.013,-0.219,-0.256,-0.244,-0.175,-0.131
'0:01.040',-0.071,-0.174,-0.103,0.122,0.016,-0.139,0.009,-0.219,-0.259,-0.247,-0.178,-0.134
'0:01.041',-0.072,-0.175,-0.103,0.124,0.016,-0.139,0.006,-0.219,-0.263,-0.250,-0.181,-0.137
'0:01.042',-0.073,-0.176,-0.103,0.125,0.015,-0.140,0.006,-0.219,-0.266,-0.247,-0.181,-0.137
'0:01.043',-0.072,-0.178,-0.106,0.125,0.017,-0.142,0.006,-0.219,-0.256,-0.244,-0.181,-0.137
'0:01.044',-0.072,-0.178,-0.106,0.125,0.017,-0.142,0.006,-0.225,-0.263,-0.244,-0.181,-0.137
'0:01.045',-0.072,-0.178,-0.106,0.125,0.017,-0.142,0.006,-0.225,-0.263,-0.244,-0.181,-0.137
'0:01.046',-0.069,-0.181,-0.112,0.125,0.022,-0.147,0.006,-0.225,-0.259,-0.244,-0.184,-0.141
'0:01.047',-0.066,-0.178,-0.112,0.122,0.023,-0.146,0.006,-0.231,-0.263,-0.244,-0.188,-0.144
'0:01.048',-0.068,-0.174,-0.106,0.121,0.019,-0.140,0.006,-0.231,-0.263,-0.247,-0.188,-0.134
'0:01.049',-0.066,-0.169,-0.103,0.117,0.019,-0.136,0.013,-0.231,-0.263,-0.250,-0.188,-0.137
'0:01.050',-0.066,-0.169,-0.103,0.117,0.019,-0.136,0.003,-0.231,-0.266,-0.247,-0.188,-0.137
'0:01.051',-0.066,-0.169,-0.103,0.117,0.019,-0.136,0.006,-0.231,-0.269,-0.244,-0.188,-0.137
'0:01.052',-0.069,-0.173,-0.104,0.121,0.018,-0.139,0.003,-0.228,-0.266,-0.247,-0.188,-0.134
'0:01.053',-0.069,-0.178,-0.109,0.124,0.020,-0.144,0.000,-0.219,-0.263,-0.250,-0.188,-0.137
'0:01.054',-0.070,-0.175,-0.105,0.122,0.018,-0.140,0.003,-0.225,-0.266,-0.253,-0.188,-0.137
'0:01.055',-0.069,-0.172,-0.103,0.121,0.017,-0.137,0.000,-0.225,-0.269,-0.256,-0.188,-0.137
'0:01.056',-0.070,-0.175,-0.105,0.122,0.018,-0.140,0.003,-0.228,-0.266,-0.244,-0.188,-0.134
'0:01.057',-0.072,-0.175,-0.103,0.124,0.016,-0.139,0.006,-0.231,-0.263,-0.244,-0.188,-0.137
'0:01.058',-0.071,-0.175,-0.104,0.123,0.017,-0.140,0.006,-0.231,-0.263,-0.244,-0.188,-0.141
'0:01.059',-0.069,-0.175,-0.106,0.122,0.019,-0.141,0.006,-0.231,-0.263,-0.244,-0.188,-0.144
'0:01.060',-0.066,-0.172,-0.106,0.119,0.020,-0.139,0.006,-0.231,-0.259,-0.247,-0.191,-0.144
'0:01.061',-0.066,-0.172,-0.106,0.119,0.020,-0.139,0.006,-0.231,-0.256,-0.250,-0.194,-0.144
'0:01.062',-0.066,-0.170,-0.104,0.118,0.019,-0.137,0.006,-0.234,-0.256,-0.250,-0.191,-0.144
'0:01.063',-0.066,-0.169,-0.103,0.117,0.019,-0.136,0.006,-0.238,-0.256,-0.250,-0.188,-0.144
'0:01.064',-0.069,-0.170,-0.101,0.119,0.016,-0.136,0.006,-0.238,-0.263,-0.250,-0.188,-0.144
'0:01.065',-0.072,-0.172,-0.100,0.122,0.014,-0.136,0.006,-0.231,-0.263,-0.244,-0.188,-0.137
'0:01.066',-0.072,-0.172,-0.100,0.122,0.014,-0.136,0.009,-0.231,-0.263,-0.244,-0.184,-0.137
'0:01.067',-0.069,-0.172,-0.103,0.121,0.017,-0.137,0.006,-0.231,-0.263,-0.250,-0.181,-0.144
'0:01.068',-0.064,-0.168,-0.103,0.116,0.019,-0.136,0.006,-0.228,-0.259,-0.244,-0.181,-0.137
'0:01.069',-0.066,-0.169,-0.103,0.117,0.019,-0.136,0.006,-0.225,-0.256,-0.244,-0.181,-0.144
'0:01.070',-0.066,-0.173,-0.107,0.119,0.021,-0.141,0.003,-0.228,-0.259,-0.247,-0.181,-0.144
'0:01.071',-0.066,-0.175,-0.109,0.121,0.022,-0.142,0.000,-0.225,-0.250,-0.244,-0.181,-0.144
'0:01.072',-0.069,-0.178,-0.109,0.124,0.020,-0.144,0.006,-0.222,-0.247,-0.244,-0.181,-0.144
'0:01.073',-0.069,-0.184,-0.116,0.127,0.023,-0.150,0.013,-0.219,-0.244,-0.244,-0.181,-0.144
'0:01.074',-0.069,-0.195,-0.126,0.132,0.029,-0.161,0.019,-0.216,-0.250,-0.247,-0.188,-0.150
'0:01.075',-0.072,-0.203,-0.131,0.138,0.029,-0.167,0.031,-0.213,-0.256,-0.250,-0.194,-0.162
'0:01.076',-0.076,-0.208,-0.132,0.142,0.027,-0.170,0.041,-0.206,-0.256,-0.253,-0.203,-0.169
'0:01.077',-0.081,-0.216,-0.134,0.149,0.026,-0.175,0.056,-0.206,-0.263,-0.263,-0.213,-0.175
'0:01.078',-0.080,-0.219,-0.139,0.149,0.029,-0.179,0.069,-0.200,-0.266,-0.266,-0.222,-0.181
'0:01.079',-0.081,-0.219,-0.137,0.150,0.028,-0.178,0.081,-0.188,-0.269,-0.275,-0.231,-0.188
'0:01.080',-0.075,-0.216,-0.141,0.146,0.033,-0.178,0.088,-0.181,-0.269,-0.275,-0.241,-0.194
'0:01.081',-0.072,-0.213,-0.141,0.142,0.034,-0.177,0.100,-0.169,-0.269,-0.281,-0.244,-0.200
'0:01.082',-0.071,-0.202,-0.131,0.136,0.030,-0.167,0.116,-0.156,-0.269,-0.284,-0.247,-0.200
'0:01.083',-0.069,-0.194,-0.125,0.131,0.028,-0.159,0.125,-0.144,-0.269,-0.287,-0.244,-0.200
'0:01.084',-0.064,-0.184,-0.121,0.124,0.028,-0.152,0.128,-0.141,-0.263,-0.287,-0.247,-0.206
'0:01.085',-0.059,-0.178,-0.119,0.119,0.029,-0.149,0.131,-0.131,-0.256,-0.287,-0.244,-0.206
'0:01.086',-0.053,-0.167,-0.114,0.110,0.030,-0.141,0.141,-0.109,-0.228,-0.272,-0.238,-0.200
'0:01.087',-0.044,-0.156,-0.112,0.100,0.034,-0.134,0.138,-0.075,-0.206,-0.250,-0.225,-0.194
'0:01.088',-0.041,-0.141,-0.100,0.091,0.029,-0.121,0.138,-0.053,-0.191,-0.231,-0.203,-0.181
'0:01.089',-0.037,-0.119,-0.081,0.078,0.022,-0.100,0.138,-0.031,-0.169,-0.206,-0.181,-0.162
'0:01.090',-0.037,-0.089,-0.051,0.063,0.007,-0.070,0.138,-0.019,-0.150,-0.184,-0.156,-0.144
'0:01.091',-0.034,-0.059,-0.025,0.047,-0.005,-0.042,0.131,-0.006,-0.131,-0.156,-0.125,-0.119
'0:01.092',-0.034,-0.019,0.016,0.027,-0.025,-0.002,0.138,0.009,-0.100,-0.125,-0.094,-0.081
'0:01.093',-0.028,0.025,0.053,0.002,-0.041,0.039,0.138,0.031,-0.062,-0.088,-0.050,-0.044
'0:01.094',-0.019,0.076,0.095,-0.029,-0.057,0.086,0.131,0.053,-0.022,-0.037,-0.003,-0.006
'0:01.095',-0.006,0.131,0.138,-0.063,-0.072,0.134,0.125,0.075,0.019,0.012,0.044,0.038
'0:01.096',0.014,0.175,0.161,-0.094,-0.074,0.168,0.109,0.109,0.072,0.075,0.091,0.075
'0:01.097',0.031,0.206,0.175,-0.119,-0.072,0.191,0.081,0.144,0.131,0.131,0.138,0.119
'0:01.098',0.050,0.250,0.200,-0.150,-0.075,0.225,0.059,0.181,0.188,0.194,0.184,0.159
'0:01.099',0.072,0.297,0.225,-0.184,-0.077,0.261,0.044,0.219,0.250,0.256,0.244,0.206
'0:01.100',0.092,0.344,0.252,-0.218,-0.080,0.298,0.022,0.259,0.303,0.319,0.297,0.253
'0:01.101',0.116,0.387,0.272,-0.251,-0.078,0.329,0.000,0.300,0.369,0.387,0.362,0.306
'0:01.102',0.136,0.430,0.294,-0.283,-0.079,0.362,-0.025,0.344,0.450,0.475,0.434,0.363
'0:01.103',0.156,0.472,0.316,-0.314,-0.080,0.394,-0.056,0.394,0.531,0.562,0.506,0.419
'0:01.104',0.182,0.525,0.343,-0.354,-0.080,0.434,-0.081,0.447,0.619,0.666,0.584,0.481
'0:01.105',0.206,0.584,0.378,-0.395,-0.086,0.481,-0.106,0.494,0.706,0.763,0.669,0.550
'0:01.106',0.233,0.650,0.417,-0.441,-0.092,0.533,-0.144,0.538,0.800,0.872,0.759,0.628
'0:01.107',0.256,0.716,0.459,-0.486,-0.102,0.587,-0.187,0.581,0.894,0.981,0.850,0.706
'0:01.108',0.280,0.768,0.488,-0.524,-0.104,0.627,-0.216,0.622,0.984,1.091,0.938,0.781
'0:01.109',0.294,0.819,0.525,-0.556,-0.116,0.672,-0.250,0.650,1.075,1.194,1.019,0.856
'0:01.110',0.314,0.884,0.571,-0.599,-0.129,0.728,-0.281,0.675,1.156,1.297,1.100,0.916
'0:01.111',0.334,0.956,0.622,-0.645,-0.144,0.789,-0.325,0.694,1.244,1.394,1.181,0.981
'0:01.112',0.351,1.011,0.659,-0.681,-0.154,0.835,-0.359,0.709,1.325,1.487,1.253,1.034
'0:01.113',0.362,1.050,0.688,-0.706,-0.163,0.869,-0.381,0.719,1.400,1.575,1.312,1.081
'0:01.114',0.359,1.086,0.726,-0.723,-0.184,0.906,-0.406,0.737,1.472,1.650,1.369,1.116
'0:01.115',0.359,1.125,0.766,-0.742,-0.203,0.945,-0.425,0.750,1.537,1.719,1.412,1.150
'0:01.116',0.350,1.161,0.811,-0.755,-0.231,0.986,-0.437,0.772,1.606,1.794,1.459,1.181
'0:01.117',0.344,1.200,0.856,-0.772,-0.256,1.028,-0.456,0.787,1.669,1.862,1.506,1.212
'0:01.118',0.331,1.242,0.911,-0.786,-0.290,1.076,-0.466,0.800,1.725,1.922,1.553,1.244
'0:01.119',0.309,1.272,0.963,-0.791,-0.327,1.117,-0.469,0.800,1.769,1.969,1.581,1.250
'0:01.120',0.277,1.269,0.992,-0.772,-0.358,1.130,-0.462,0.800,1.791,1.991,1.594,1.256
'0:01.121',0.247,1.212,0.966,-0.729,-0.359,1.089,-0.456,0.787,1.806,2.000,1.581,1.231
'0:01.122',0.225,1.113,0.888,-0.669,-0.331,1.000,-0.453,0.756,1.806,1.994,1.534,1.175
'0:01.123',0.203,1.003,0.800,-0.603,-0.299,0.901,-0.450,0.712,1.788,1.988,1.475,1.119
'0:01.124',0.186,0.888,0.702,-0.536,-0.258,0.794,-0.472,0.656,1.759,1.953,1.412,1.050
'0:01.125',0.178,0.778,0.600,-0.478,-0.211,0.689,-0.494,0.594,1.719,1.919,1.344,0.981
'0:01.126',0.168,0.675,0.508,-0.421,-0.170,0.591,-0.522,0.544,1.691,1.881,1.281,0.916
'0:01.127',0.156,0.587,0.431,-0.372,-0.138,0.509,-0.550,0.481,1.650,1.844,1.219,0.856
'0:01.128',0.151,0.521,0.369,-0.336,-0.109,0.445,-0.575,0.403,1.597,1.781,1.156,0.806
'0:01.129',0.137,0.456,0.319,-0.297,-0.091,0.387,-0.594,0.325,1.525,1.706,1.087,0.744
'0:01.130',0.120,0.387,0.268,-0.254,-0.074,0.328,-0.606,0.228,1.419,1.594,0.997,0.672
'0:01.131',0.100,0.313,0.213,-0.206,-0.056,0.263,-0.619,0.119,1.300,1.469,0.894,0.594
'0:01.132',0.082,0.242,0.159,-0.162,-0.039,0.201,-0.622,0.016,1.166,1.331,0.791,0.522
'0:01.133',0.062,0.162,0.100,-0.112,-0.019,0.131,-0.619,-0.075,1.038,1.194,0.681,0.437
'0:01.134',0.046,0.073,0.028,-0.059,0.009,0.050,-0.628,-0.156,0.909,1.044,0.550,0.344
'0:01.135',0.025,-0.022,-0.047,-0.001,0.036,-0.034,-0.625,-0.225,0.775,0.887,0.425,0.250
'0:01.136',0.005,-0.119,-0.124,0.057,0.064,-0.121,-0.616,-0.281,0.650,0.725,0.303,0.156
'0:01.137',-0.016,-0.206,-0.191,0.111,0.087,-0.199,-0.587,-0.331,0.519,0.562,0.187,0.075
'0:01.138',-0.033,-0.269,-0.236,0.151,0.102,-0.253,-0.553,-0.378,0.384,0.413,0.091,0.012
'0:01.139',-0.050,-0.322,-0.272,0.186,0.111,-0.297,-0.519,-0.437,0.250,0.262,0.000,-0.044
'0:01.140',-0.056,-0.351,-0.295,0.204,0.119,-0.323,-0.503,-0.503,0.103,0.116,-0.081,-0.091
'0:01.141',-0.062,-0.372,-0.309,0.218,0.123,-0.341,-0.487,-0.575,-0.050,-0.031,-0.150,-0.131
'0:01.142',-0.069,-0.375,-0.306,0.222,0.119,-0.341,-0.453,-0.650,-0.203,-0.166,-0.216,-0.159
'0:01.143',-0.075,-0.378,-0.303,0.227,0.114,-0.341,-0.431,-0.713,-0.338,-0.281,-0.256,-0.181
'0:01.144',-0.084,-0.374,-0.289,0.229,0.102,-0.332,-0.412,-0.738,-0.416,-0.341,-0.272,-0.194
'0:01.145',-0.091,-0.366,-0.275,0.228,0.092,-0.321,-0.394,-0.750,-0.450,-0.375,-0.288,-0.200
'0:01.146',-0.095,-0.358,-0.263,0.227,0.084,-0.311,-0.372,-0.731,-0.466,-0.381,-0.288,-0.200
'0:01.147',-0.100,-0.344,-0.244,0.222,0.072,-0.294,-0.344,-0.706,-0.462,-0.381,-0.288,-0.200
'0:01.148',-0.094,-0.328,-0.234,0.211,0.070,-0.281,-0.325,-0.672,-0.459,-0.381,-0.275,-0.200
'0:01.149',-0.084,-0.309,-0.225,0.197,0.070,-0.267,-0.300,-0.638,-0.450,-0.369,-0.269,-0.200
'0:01.150',-0.081,-0.291,-0.209,0.186,0.064,-0.250,-0.281,-0.597,-0.434,-0.356,-0.256,-0.197
'0:01.151',-0.078,-0.269,-0.191,0.174,0.056,-0.230,-0.256,-0.556,-0.413,-0.338,-0.244,-0.188
'0:01.152',-0.081,-0.258,-0.177,0.170,0.047,-0.217,-0.228,-0.513,-0.384,-0.316,-0.231,-0.181
'0:01.153',-0.081,-0.244,-0.162,0.162,0.041,-0.203,-0.200,-0.481,-0.363,-0.300,-0.225,-0.175
'0:01.154',-0.076,-0.236,-0.159,0.156,0.041,-0.197,-0.178,-0.447,-0.344,-0.291,-0.213,-0.166
'0:01.155',-0.075,-0.228,-0.153,0.152,0.039,-0.191,-0.150,-0.412,-0.331,-0.281,-0.213,-0.162
'0:01.156',-0.073,-0.222,-0.149,0.147,0.037,-0.186,-0.131,-0.378,-0.313,-0.269,-0.203,-0.153
'0:01.157',-0.075,-0.213,-0.137,0.144,0.031,-0.175,-0.106,-0.344,-0.294,-0.256,-0.194,-0.144
'0:01.158',-0.072,-0.205,-0.133,0.139,0.031,-0.169,-0.084,-0.316,-0.278,-0.244,-0.191,-0.144
'0:01.159',-0.072,-0.194,-0.122,0.133,0.025,-0.158,-0.069,-0.294,-0.256,-0.231,-0.188,-0.137
'0:01.160',-0.066,-0.186,-0.120,0.126,0.027,-0.153,-0.053,-0.269,-0.247,-0.228,-0.181,-0.134
'0:01.161',-0.056,-0.178,-0.122,0.117,0.033,-0.150,-0.044,-0.250,-0.238,-0.219,-0.175,-0.137
'0:01.162',-0.054,-0.170,-0.116,0.113,0.031,-0.143,-0.044,-0.234,-0.228,-0.219,-0.172,-0.131
'0:01.163',-0.050,-0.166,-0.116,0.108,0.033,-0.141,-0.037,-0.225,-0.219,-0.212,-0.175,-0.131
'0:01.164',-0.049,-0.166,-0.117,0.108,0.034,-0.141,-0.031,-0.209,-0.213,-0.212,-0.169,-0.131
'0:01.165',-0.050,-0.166,-0.116,0.108,0.033,-0.141,-0.025,-0.200,-0.206,-0.206,-0.169,-0.125
'0:01.166',-0.051,-0.161,-0.109,0.106,0.029,-0.135,-0.028,-0.188,-0.203,-0.200,-0.166,-0.125
'0:01.167',-0.053,-0.159,-0.106,0.106,0.026,-0.133,-0.025,-0.181,-0.200,-0.200,-0.156,-0.119
'0:01.168',-0.056,-0.152,-0.096,0.104,0.019,-0.124,-0.022,-0.178,-0.191,-0.197,-0.153,-0.122
'0:01.169',-0.056,-0.144,-0.087,0.100,0.016,-0.116,-0.019,-0.175,-0.188,-0.200,-0.156,-0.119
'0:01.170',-0.055,-0.144,-0.089,0.099,0.017,-0.116,-0.016,-0.175,-0.200,-0.197,-0.150,-0.119
'0:01.171',-0.053,-0.141,-0.087,0.097,0.017,-0.114,-0.006,-0.169,-0.200,-0.194,-0.150,-0.119
'0:01.172',-0.056,-0.139,-0.082,0.097,0.013,-0.111,0.000,-0.169,-0.197,-0.187,-0.147,-0.112
'0:01.173',-0.056,-0.141,-0.084,0.099,0.014,-0.112,0.000,-0.169,-0.194,-0.187,-0.144,-0.119
'0:01.174',-0.056,-0.137,-0.081,0.097,0.012,-0.109,0.006,-0.159,-0.197,-0.194,-0.144,-0.112
'0:01.175',-0.056,-0.131,-0.075,0.094,0.009,-0.103,0.006,-0.156,-0.194,-0.194,-0.144,-0.112
'0:01.176',-0.058,-0.131,-0.074,0.094,0.008,-0.102,0.016,-0.153,-0.200,-0.194,-0.144,-0.112
'0:01.177',-0.056,-0.131,-0.075,0.094,0.009,-0.103,0.019,-0.156,-0.200,-0.187,-0.144,-0.112
'0:01.178',-0.055,-0.131,-0.076,0.093,0.011,-0.104,0.019,-0.153,-0.194,-0.194,-0.147,-0.112
'0:01.179',-0.053,-0.131,-0.078,0.093,0.012,-0.105,0.019,-0.150,-0.194,-0.194,-0.150,-0.119
'0:01.180',-0.049,-0.128,-0.079,0.089,0.015,-0.104,0.022,-0.150,-0.194,-0.197,-0.147,-0.119
'0:01.181',-0.044,-0.128,-0.084,0.086,0.020,-0.106,0.019,-0.144,-0.194,-0.200,-0.150,-0.119
'0:01.182',-0.042,-0.128,-0.086,0.086,0.021,-0.107,0.016,-0.144,-0.194,-0.200,-0.153,-0.116
'0:01.183',-0.041,-0.125,-0.084,0.083,0.022,-0.105,0.013,-0.144,-0.194,-0.200,-0.156,-0.119
'0:01.184',-0.041,-0.125,-0.084,0.083,0.022,-0.105,0.016,-0.141,-0.197,-0.203,-0.153,-0.116
'0:01.185',-0.041,-0.125,-0.084,0.083,0.022,-0.105,0.019,-0.138,-0.194,-0.206,-0.156,-0.119
'0:01.186',-0.042,-0.123,-0.081,0.083,0.019,-0.102,0.019,-0.138,-0.200,-0.203,-0.156,-0.119
'0:01.187',-0.044,-0.125,-0.081,0.084,0.019,-0.103,0.019,-0.138,-0.200,-0.200,-0.156,-0.119
'0:01.188',-0.048,-0.125,-0.077,0.087,0.014,-0.101,0.019,-0.141,-0.197,-0.197,-0.153,-0.119
'0:01.189',-0.053,-0.125,-0.072,0.089,0.009,-0.099,0.019,-0.144,-0.188,-0.194,-0.150,-0.112
'0:01.190',-0.058,-0.128,-0.071,0.093,0.006,-0.099,0.019,-0.138,-0.188,-0.197,-0.153,-0.112
'0:01.191',-0.062,-0.128,-0.066,0.096,0.001,-0.097,0.025,-0.138,-0.188,-0.200,-0.156,-0.112
'0:01.192',-0.062,-0.128,-0.066,0.096,0.001,-0.097,0.031,-0.134,-0.188,-0.191,-0.147,-0.109
'0:01.193',-0.062,-0.128,-0.066,0.096,0.001,-0.097,0.038,-0.125,-0.188,-0.187,-0.150,-0.106
'0:01.194',-0.058,-0.127,-0.069,0.093,0.005,-0.098,0.041,-0.125,-0.191,-0.187,-0.144,-0.106
'0:01.195',-0.056,-0.125,-0.069,0.091,0.006,-0.097,0.044,-0.119,-0.188,-0.187,-0.144,-0.106
'0:01.196',-0.055,-0.125,-0.070,0.090,0.007,-0.097,0.044,-0.119,-0.188,-0.181,-0.144,-0.109
'0:01.197',-0.053,-0.128,-0.075,0.091,0.011,-0.102,0.044,-0.119,-0.188,-0.187,-0.144,-0.112
'0:01.198',-0.046,-0.127,-0.081,0.086,0.018,-0.104,0.044,-0.119,-0.188,-0.191,-0.144,-0.112
'0:01.199',-0.041,-0.122,-0.081,0.081,0.020,-0.102,0.044,-0.119,-0.188,-0.187,-0.144,-0.112
'0:01.200',-0.042,-0.122,-0.080,0.082,0.019,-0.101,0.041,-0.116,-0.188,-0.187,-0.144,-0.112
'0:01.201',-0.044,-0.119,-0.075,0.081,0.016,-0.097,0.038,-0.119,-0.188,-0.187,-0.144,-0.112
'0:01.202',-0.042,-0.119,-0.076,0.081,0.017,-0.097,0.034,-0.119,-0.188,-0.187,-0.138,-0.112
'0:01.203',-0.044,-0.113,-0.069,0.078,0.012,-0.091,0.031,-0.119,-0.188,-0.187,-0.138,-0.112
'0:01.204',-0.045,-0.113,-0.067,0.079,0.011,-0.090,0.031,-0.119,-0.184,-0.184,-0.141,-0.109
'0:01.205',-0.044,-0.109,-0.066,0.077,0.011,-0.087,0.031,-0.119,-0.181,-0.187,-0.144,-0.112
'0:01.206',-0.044,-0.108,-0.064,0.076,0.010,-0.086,0.031,-0.119,-0.184,-0.187,-0.141,-0.109
'0:01.207',-0.041,-0.109,-0.069,0.075,0.014,-0.089,0.031,-0.119,-0.181,-0.187,-0.138,-0.106
'0:01.208',-0.044,-0.109,-0.066,0.077,0.011,-0.087,0.034,-0.109,-0.178,-0.181,-0.138,-0.106
'0:01.209',-0.044,-0.109,-0.066,0.077,0.011,-0.087,0.038,-0.106,-0.169,-0.175,-0.138,-0.106
'0:01.210',-0.042,-0.111,-0.069,0.076,0.013,-0.090,0.034,-0.100,-0.169,-0.175,-0.131,-0.097
'0:01.211',-0.044,-0.113,-0.069,0.078,0.012,-0.091,0.031,-0.100,-0.169,-0.175,-0.131,-0.094
'0:01.212',-0.041,-0.109,-0.069,0.075,0.014,-0.089,0.041,-0.103,-0.169,-0.175,-0.138,-0.100
'0:01.213',-0.034,-0.106,-0.072,0.071,0.019,-0.089,0.038,-0.100,-0.169,-0.181,-0.131,-0.100
'0:01.214',-0.033,-0.111,-0.077,0.072,0.022,-0.094,0.034,-0.100,-0.172,-0.178,-0.131,-0.100
'0:01.215',-0.034,-0.113,-0.078,0.074,0.022,-0.096,0.031,-0.100,-0.175,-0.175,-0.138,-0.100
'0:01.216',-0.036,-0.108,-0.072,0.072,0.018,-0.091,0.031,-0.097,-0.169,-0.175,-0.131,-0.100
'0:01.217',-0.037,-0.109,-0.072,0.074,0.017,-0.091,0.038,-0.088,-0.169,-0.175,-0.131,-0.100
'0:01.218',-0.034,-0.111,-0.076,0.072,0.021,-0.094,0.034,-0.088,-0.163,-0.169,-0.128,-0.097
'0:01.219',-0.037,-0.109,-0.072,0.074,0.017,-0.091,0.031,-0.088,-0.156,-0.169,-0.125,-0.100
'0:01.220',-0.037,-0.108,-0.071,0.073,0.016,-0.089,0.031,-0.094,-0.147,-0.169,-0.119,-0.100
'0:01.221',-0.037,-0.103,-0.066,0.071,0.014,-0.084,0.031,-0.094,-0.150,-0.169,-0.125,-0.100
'0:01.222',-0.036,-0.104,-0.068,0.071,0.016,-0.086,0.031,-0.088,-0.156,-0.166,-0.125,-0.097
'0:01.223',-0.034,-0.103,-0.069,0.069,0.017,-0.086,0.025,-0.081,-0.156,-0.163,-0.119,-0.094
'0:01.224',-0.034,-0.099,-0.064,0.067,0.015,-0.082,0.022,-0.081,-0.159,-0.156,-0.119,-0.097
'0:01.225',-0.034,-0.094,-0.059,0.064,0.012,-0.077,0.025,-0.075,-0.156,-0.156,-0.119,-0.094
'0:01.226',-0.031,-0.095,-0.064,0.063,0.016,-0.079,0.031,-0.075,-0.153,-0.156,-0.122,-0.100
'0:01.227',-0.031,-0.094,-0.062,0.063,0.016,-0.078,0.038,-0.075,-0.150,-0.156,-0.125,-0.100
'0:01.228',-0.030,-0.094,-0.064,0.062,0.017,-0.079,0.038,-0.075,-0.150,-0.150,-0.119,-0.097
'0:01.229',-0.031,-0.094,-0.062,0.063,0.016,-0.078,0.038,-0.069,-0.144,-0.150,-0.119,-0.100
'0:01.230',-0.033,-0.094,-0.061,0.063,0.014,-0.077,0.038,-0.063,-0.147,-0.153,-0.116,-0.100
'0:01.231',-0.031,-0.094,-0.062,0.063,0.016,-0.078,0.038,-0.063,-0.150,-0.156,-0.113,-0.100
'0:01.232',-0.031,-0.091,-0.059,0.061,0.014,-0.075,0.041,-0.066,-0.144,-0.150,-0.119,-0.094
'0:01.233',-0.031,-0.094,-0.062,0.063,0.016,-0.078,0.044,-0.063,-0.144,-0.150,-0.119,-0.094
'0:01.234',-0.031,-0.094,-0.062,0.063,0.016,-0.078,0.044,-0.063,-0.144,-0.144,-0.116,-0.088
'0:01.235',-0.031,-0.094,-0.062,0.063,0.016,-0.078,0.044,-0.063,-0.138,-0.144,-0.113,-0.081
'0:01.236',-0.033,-0.094,-0.061,0.063,0.014,-0.077,0.044,-0.063,-0.134,-0.138,-0.113,-0.084
'0:01.237',-0.034,-0.094,-0.059,0.064,0.012,-0.077,0.044,-0.056,-0.131,-0.131,-0.113,-0.088
'0:01.238',-0.034,-0.094,-0.059,0.064,0.012,-0.077,0.041,-0.056,-0.131,-0.138,-0.106,-0.084
'0:01.239',-0.034,-0.091,-0.056,0.063,0.011,-0.074,0.038,-0.056,-0.131,-0.138,-0.106,-0.081
'0:01.240',-0.039,-0.092,-0.053,0.066,0.007,-0.072,0.038,-0.050,-0.134,-0.134,-0.113,-0.081
'0:01.241',-0.044,-0.094,-0.050,0.069,0.003,-0.072,0.038,-0.050,-0.131,-0.131,-0.106,-0.081
'0:01.242',-0.041,-0.095,-0.054,0.068,0.007,-0.075,0.038,-0.044,-0.128,-0.134,-0.106,-0.084
'0:01.243',-0.041,-0.094,-0.053,0.068,0.006,-0.074,0.038,-0.044,-0.119,-0.138,-0.106,-0.081
'0:01.244',-0.036,-0.093,-0.056,0.064,0.010,-0.074,0.041,-0.041,-0.119,-0.128,-0.103,-0.078
'0:01.245',-0.034,-0.091,-0.056,0.063,0.011,-0.074,0.044,-0.031,-0.119,-0.125,-0.100,-0.075
'0:01.246',-0.030,-0.086,-0.056,0.058,0.013,-0.071,0.041,-0.025,-0.113,-0.128,-0.097,-0.078
'0:01.247',-0.022,-0.078,-0.056,0.050,0.017,-0.067,0.038,-0.025,-0.113,-0.125,-0.100,-0.081
'0:01.248',-0.019,-0.072,-0.053,0.046,0.017,-0.062,0.034,-0.025,-0.116,-0.125,-0.100,-0.081
'0:01.249',-0.019,-0.069,-0.050,0.044,0.016,-0.059,0.031,-0.019,-0.113,-0.125,-0.100,-0.081
'0:01.250',-0.017,-0.073,-0.056,0.045,0.019,-0.065,0.034,-0.019,-0.109,-0.119,-0.100,-0.075
'0:01.251',-0.022,-0.072,-0.050,0.047,0.014,-0.061,0.038,-0.019,-0.100,-0.119,-0.094,-0.075
'0:01.252',-0.023,-0.073,-0.050,0.048,0.013,-0.062,0.041,-0.019,-0.100,-0.119,-0.094,-0.075
'0:01.253',-0.022,-0.072,-0.050,0.047,0.014,-0.061,0.044,-0.013,-0.100,-0.119,-0.094,-0.075
'0:01.254',-0.017,-0.069,-0.051,0.043,0.017,-0.060,0.041,-0.009,-0.094,-0.112,-0.094,-0.075
'0:01.255',-0.016,-0.069,-0.053,0.043,0.019,-0.061,0.038,-0.013,-0.094,-0.112,-0.088,-0.075
'0:01.256',-0.016,-0.069,-0.053,0.043,0.019,-0.061,0.038,-0.013,-0.097,-0.103,-0.084,-0.075
'0:01.257',-0.016,-0.066,-0.050,0.041,0.017,-0.058,0.038,-0.006,-0.094,-0.100,-0.081,-0.069
'0:01.258',-0.016,-0.066,-0.050,0.041,0.017,-0.058,0.038,0.003,-0.094,-0.097,-0.084,-0.072
'0:01.259',-0.016,-0.066,-0.050,0.041,0.017,-0.058,0.038,0.006,-0.088,-0.100,-0.081,-0.075
'0:01.260',-0.016,-0.061,-0.046,0.039,0.015,-0.054,0.038,0.013,-0.084,-0.100,-0.081,-0.075
'0:01.261',-0.016,-0.059,-0.044,0.038,0.014,-0.052,0.038,0.013,-0.075,-0.100,-0.081,-0.075
'0:01.262',-0.016,-0.059,-0.044,0.038,0.014,-0.052,0.038,0.019,-0.078,-0.094,-0.081,-0.075
'0:01.263',-0.016,-0.056,-0.041,0.036,0.012,-0.049,0.038,0.019,-0.075,-0.094,-0.081,-0.075
'0:01.264',-0.014,-0.055,-0.041,0.035,0.013,-0.048,0.038,0.019,-0.078,-0.094,-0.078,-0.069
'0:01.265',-0.013,-0.050,-0.037,0.031,0.012,-0.044,0.038,0.019,-0.075,-0.094,-0.081,-0.069
'0:01.266',-0.014,-0.050,-0.036,0.032,0.011,-0.043,0.038,0.025,-0.069,-0.091,-0.081,-0.072
'0:01.267',-0.016,-0.050,-0.034,0.033,0.009,-0.042,0.038,0.038,-0.056,-0.088,-0.075,-0.075
'0:01.268',-0.014,-0.047,-0.032,0.031,0.009,-0.040,0.038,0.034,-0.059,-0.088,-0.075,-0.066
'0:01.269',-0.013,-0.047,-0.034,0.030,0.011,-0.041,0.038,0.038,-0.056,-0.081,-0.075,-0.062
'0:01.270',-0.011,-0.046,-0.035,0.028,0.012,-0.041,0.038,0.044,-0.056,-0.078,-0.066,-0.059
'0:01.271',-0.013,-0.041,-0.028,0.027,0.007,-0.034,0.038,0.044,-0.050,-0.069,-0.063,-0.056
'0:01.272',-0.011,-0.039,-0.028,0.025,0.009,-0.034,0.038,0.047,-0.050,-0.066,-0.063,-0.056
'0:01.273',-0.013,-0.041,-0.028,0.027,0.007,-0.034,0.038,0.056,-0.044,-0.056,-0.063,-0.050
'0:01.274',-0.014,-0.042,-0.028,0.028,0.007,-0.035,0.038,0.063,-0.034,-0.056,-0.056,-0.050
'0:01.275',-0.013,-0.041,-0.028,0.027,0.007,-0.034,0.038,0.069,-0.031,-0.063,-0.056,-0.050
'0:01.276',-0.011,-0.037,-0.027,0.024,0.008,-0.032,0.041,0.069,-0.028,-0.056,-0.056,-0.056
'0:01.277',-0.013,-0.037,-0.025,0.025,0.006,-0.031,0.044,0.075,-0.019,-0.056,-0.050,-0.056
'0:01.278',-0.006,-0.034,-0.028,0.021,0.011,-0.031,0.038,0.072,-0.019,-0.053,-0.053,-0.056
'0:01.279',0.000,-0.031,-0.031,0.016,0.016,-0.031,0.038,0.075,-0.019,-0.056,-0.056,-0.056
'0:01.280',0.003,-0.028,-0.031,0.013,0.017,-0.030,0.038,0.081,-0.019,-0.047,-0.053,-0.053
'0:01.281',0.003,-0.028,-0.031,0.013,0.017,-0.030,0.038,0.088,-0.012,-0.044,-0.056,-0.044
'0:01.282',0.001,-0.025,-0.026,0.012,0.014,-0.026,0.034,0.088,-0.003,-0.037,-0.044,-0.044
'0:01.283',0.003,-0.019,-0.022,0.008,0.012,-0.021,0.038,0.094,0.000,-0.031,-0.038,-0.044
'0:01.284',0.005,-0.022,-0.027,0.009,0.016,-0.024,0.038,0.100,0.006,-0.031,-0.041,-0.044
'0:01.285',0.009,-0.022,-0.031,0.006,0.020,-0.027,0.038,0.100,0.006,-0.025,-0.044,-0.037
'0:01.286',0.006,-0.022,-0.028,0.008,0.017,-0.025,0.031,0.106,0.013,-0.025,-0.038,-0.037
'0:01.287',0.006,-0.022,-0.028,0.008,0.017,-0.025,0.031,0.113,0.019,-0.019,-0.038,-0.037
'0:01.288',0.009,-0.019,-0.028,0.005,0.019,-0.024,0.034,0.119,0.025,-0.009,-0.028,-0.037
'0:01.289',0.009,-0.019,-0.028,0.005,0.019,-0.024,0.038,0.125,0.031,-0.006,-0.025,-0.031
'0:01.290',0.009,-0.020,-0.029,0.006,0.019,-0.025,0.038,0.131,0.031,0.000,-0.025,-0.031
'0:01.291',0.009,-0.019,-0.028,0.005,0.019,-0.024,0.038,0.144,0.038,0.000,-0.019,-0.031
'0:01.292',0.008,-0.020,-0.028,0.006,0.018,-0.024,0.038,0.150,0.047,0.009,-0.016,-0.022
'0:01.293',0.006,-0.022,-0.028,0.008,0.017,-0.025,0.038,0.156,0.050,0.019,-0.006,-0.019
'0:01.294',0.005,-0.014,-0.019,0.005,0.012,-0.017,0.038,0.156,0.059,0.016,-0.009,-0.016
'0:01.295',0.006,-0.009,-0.016,0.002,0.011,-0.013,0.038,0.162,0.056,0.019,-0.006,-0.006
'0:01.296',0.013,-0.005,-0.017,-0.004,0.015,-0.011,0.038,0.169,0.059,0.025,-0.003,-0.006
'0:01.297',0.016,0.000,-0.016,-0.007,0.016,-0.008,0.038,0.175,0.063,0.031,0.000,-0.006
'0:01.298',0.022,0.003,-0.019,-0.013,0.020,-0.008,0.038,0.184,0.063,0.034,0.006,-0.003
'0:01.299',0.028,0.003,-0.025,-0.016,0.026,-0.011,0.038,0.187,0.069,0.044,0.006,0.000
'0:01.300',0.029,0.008,-0.022,-0.018,0.026,-0.007,0.034,0.187,0.078,0.041,0.006,-0.006
'0:01.301',0.031,0.006,-0.025,-0.019,0.028,-0.009,0.031,0.194,0.088,0.044,0.012,-0.006
'0:01.302',0.031,0.008,-0.023,-0.019,0.027,-0.007,0.028,0.194,0.094,0.047,0.009,0.000
'0:01.303',0.031,0.009,-0.022,-0.020,0.026,-0.006,0.025,0.200,0.100,0.050,0.012,0.000
'0:01.304',0.033,0.012,-0.020,-0.022,0.026,-0.004,0.028,0.206,0.100,0.053,0.012,-0.003
'0:01.305',0.034,0.012,-0.022,-0.023,0.028,-0.005,0.025,0.212,0.106,0.063,0.019,0.000
'0:01.306',0.036,0.014,-0.022,-0.025,0.029,-0.004,0.028,0.222,0.113,0.069,0.016,0.000
