'Elapsed time','I','II','III','AVR','AVL','AVF','V1','V2','V3','V4','V5','V6'
'hh:mm:ss.mmm','mV','mV','mV','mV','mV','mV','mV','mV','mV','mV','mV','mV'
'0:00.000',-0.067,-0.156,-0.089,0.111,0.011,-0.122,0.028,-0.244,-0.278,-0.263,-0.191,-0.131
'0:00.001',-0.059,-0.147,-0.088,0.103,0.014,-0.117,0.025,-0.238,-0.275,-0.256,-0.187,-0.131
'0:00.002',-0.062,-0.146,-0.083,0.104,0.010,-0.114,0.022,-0.231,-0.275,-0.256,-0.187,-0.134
'0:00.003',-0.062,-0.147,-0.084,0.105,0.011,-0.116,0.019,-0.238,-0.269,-0.256,-0.187,-0.138
'0:00.004',-0.061,-0.151,-0.090,0.106,0.014,-0.121,0.019,-0.231,-0.272,-0.256,-0.187,-0.138
'0:00.005',-0.056,-0.156,-0.100,0.106,0.022,-0.128,0.019,-0.238,-0.275,-0.256,-0.187,-0.138
'0:00.006',-0.053,-0.156,-0.103,0.105,0.025,-0.130,0.016,-0.241,-0.275,-0.259,-0.191,-0.138
'0:00.007',-0.050,-0.159,-0.109,0.105,0.029,-0.134,0.013,-0.244,-0.275,-0.263,-0.194,-0.144
'0:00.008',-0.048,-0.161,-0.113,0.104,0.032,-0.137,0.016,-0.250,-0.278,-0.263,-0.194,-0.138
'0:00.009',-0.050,-0.163,-0.113,0.106,0.031,-0.137,0.013,-0.250,-0.275,-0.263,-0.194,-0.138
'0:00.010',-0.050,-0.167,-0.117,0.109,0.033,-0.142,0.013,-0.247,-0.281,-0.263,-0.197,-0.147
'0:00.011',-0.050,-0.166,-0.116,0.108,0.032,-0.141,0.013,-0.244,-0.281,-0.256,-0.200,-0.144
'0:00.012',-0.048,-0.164,-0.116,0.106,0.034,-0.140,0.009,-0.234,-0.275,-0.259,-0.194,-0.141
'0:00.013',-0.050,-0.159,-0.109,0.105,0.029,-0.134,0.013,-0.231,-0.275,-0.256,-0.194,-0.138
'0:00.014',-0.046,-0.149,-0.103,0.098,0.029,-0.126,0.022,-0.228,-0.275,-0.259,-0.194,-0.131
'0:00.015',-0.044,-0.144,-0.100,0.094,0.028,-0.122,0.025,-0.231,-0.269,-0.256,-0.187,-0.131
'0:00.016',-0.039,-0.138,-0.098,0.089,0.029,-0.118,0.028,-0.228,-0.266,-0.256,-0.184,-0.128
'0:00.017',-0.034,-0.125,-0.091,0.080,0.028,-0.108,0.031,-0.225,-0.263,-0.250,-0.187,-0.131
'0:00.018',-0.037,-0.109,-0.072,0.074,0.017,-0.091,0.034,-0.219,-0.253,-0.244,-0.172,-0.125
'0:00.019',-0.034,-0.094,-0.059,0.064,0.012,-0.077,0.038,-0.213,-0.244,-0.237,-0.162,-0.119
'0:00.020',-0.036,-0.080,-0.044,0.058,0.004,-0.062,0.041,-0.206,-0.231,-0.231,-0.159,-0.109
'0:00.021',-0.031,-0.072,-0.041,0.052,0.004,-0.056,0.038,-0.206,-0.231,-0.225,-0.162,-0.112
'0:00.022',-0.022,-0.066,-0.044,0.044,0.011,-0.055,0.038,-0.203,-0.234,-0.225,-0.156,-0.112
'0:00.023',-0.016,-0.066,-0.050,0.041,0.017,-0.058,0.038,-0.206,-0.238,-0.225,-0.156,-0.112
'0:00.024',-0.017,-0.063,-0.046,0.040,0.014,-0.054,0.041,-0.206,-0.228,-0.225,-0.159,-0.112
'0:00.025',-0.016,-0.063,-0.047,0.039,0.016,-0.055,0.038,-0.206,-0.225,-0.225,-0.162,-0.112
'0:00.026',-0.017,-0.064,-0.047,0.041,0.014,-0.056,0.034,-0.197,-0.228,-0.216,-0.153,-0.106
'0:00.027',-0.016,-0.063,-0.047,0.039,0.016,-0.055,0.031,-0.200,-0.231,-0.212,-0.150,-0.106
'0:00.028',-0.016,-0.072,-0.056,0.044,0.020,-0.064,0.031,-0.200,-0.228,-0.209,-0.156,-0.103
'0:00.029',-0.019,-0.078,-0.059,0.049,0.020,-0.069,0.038,-0.200,-0.225,-0.206,-0.156,-0.100
'0:00.030',-0.020,-0.078,-0.058,0.049,0.019,-0.068,0.034,-0.197,-0.231,-0.212,-0.156,-0.106
'0:00.031',-0.022,-0.081,-0.059,0.052,0.019,-0.071,0.031,-0.200,-0.231,-0.212,-0.156,-0.106
'0:00.032',-0.014,-0.083,-0.069,0.049,0.027,-0.076,0.025,-0.203,-0.238,-0.216,-0.166,-0.103
'0:00.033',-0.006,-0.075,-0.069,0.041,0.031,-0.072,0.013,-0.206,-0.231,-0.219,-0.169,-0.106
'0:00.034',0.001,-0.071,-0.072,0.035,0.036,-0.071,0.009,-0.203,-0.231,-0.225,-0.159,-0.106
'0:00.035',0.006,-0.059,-0.066,0.027,0.036,-0.062,0.006,-0.206,-0.231,-0.225,-0.156,-0.106
'0:00.036',0.008,-0.054,-0.063,0.023,0.035,-0.059,0.006,-0.197,-0.225,-0.222,-0.150,-0.100
'0:00.037',0.006,-0.056,-0.063,0.025,0.034,-0.059,0.006,-0.194,-0.219,-0.212,-0.150,-0.100
'0:00.038',0.006,-0.058,-0.064,0.026,0.035,-0.061,0.003,-0.194,-0.222,-0.209,-0.150,-0.097
'0:00.039',0.003,-0.053,-0.056,0.025,0.029,-0.055,0.006,-0.188,-0.225,-0.206,-0.144,-0.094
'0:00.040',0.000,-0.051,-0.051,0.026,0.026,-0.051,0.003,-0.188,-0.216,-0.206,-0.141,-0.087
'0:00.041',-0.006,-0.044,-0.038,0.025,0.016,-0.041,0.006,-0.181,-0.206,-0.200,-0.131,-0.081
'0:00.042',-0.008,-0.044,-0.036,0.026,0.014,-0.040,0.009,-0.181,-0.206,-0.194,-0.128,-0.075
'0:00.043',-0.009,-0.034,-0.025,0.022,0.007,-0.030,0.019,-0.181,-0.200,-0.194,-0.131,-0.075
'0:00.044',-0.009,-0.028,-0.019,0.019,0.004,-0.024,0.022,-0.181,-0.197,-0.191,-0.122,-0.078
'0:00.045',-0.012,-0.028,-0.016,0.021,0.001,-0.022,0.025,-0.188,-0.200,-0.188,-0.119,-0.075
'0:00.046',-0.017,-0.026,-0.009,0.022,-0.004,-0.018,0.022,-0.184,-0.206,-0.191,-0.125,-0.069
'0:00.047',-0.019,-0.028,-0.009,0.024,-0.005,-0.019,0.025,-0.181,-0.206,-0.188,-0.119,-0.062
'0:00.048',-0.021,-0.021,0.000,0.021,-0.011,-0.011,0.028,-0.191,-0.206,-0.188,-0.116,-0.062
'0:00.049',-0.019,-0.019,0.000,0.019,-0.009,-0.009,0.025,-0.188,-0.206,-0.188,-0.112,-0.062
'0:00.050',-0.016,-0.021,-0.005,0.018,-0.006,-0.013,0.028,-0.191,-0.203,-0.191,-0.119,-0.059
'0:00.051',-0.016,-0.025,-0.009,0.021,-0.003,-0.017,0.031,-0.188,-0.206,-0.194,-0.125,-0.062
'0:00.052',-0.014,-0.028,-0.014,0.021,-0.001,-0.021,0.022,-0.194,-0.209,-0.203,-0.128,-0.075
'0:00.053',-0.016,-0.038,-0.022,0.027,0.003,-0.030,0.019,-0.188,-0.213,-0.206,-0.131,-0.081
'0:00.054',-0.016,-0.046,-0.030,0.031,0.007,-0.038,0.019,-0.197,-0.213,-0.209,-0.137,-0.087
'0:00.055',-0.012,-0.050,-0.038,0.031,0.012,-0.044,0.019,-0.194,-0.213,-0.212,-0.137,-0.087
'0:00.056',-0.008,-0.056,-0.048,0.032,0.020,-0.052,0.016,-0.188,-0.209,-0.209,-0.134,-0.091
'0:00.057',-0.009,-0.063,-0.053,0.036,0.022,-0.058,0.019,-0.188,-0.213,-0.212,-0.137,-0.087
'0:00.058',-0.016,-0.072,-0.056,0.044,0.020,-0.064,0.019,-0.194,-0.219,-0.216,-0.134,-0.087
'0:00.059',-0.016,-0.075,-0.059,0.046,0.022,-0.067,0.019,-0.194,-0.219,-0.219,-0.137,-0.094
'0:00.060',-0.022,-0.081,-0.059,0.052,0.019,-0.071,0.019,-0.197,-0.228,-0.212,-0.141,-0.097
'0:00.061',-0.025,-0.088,-0.063,0.056,0.019,-0.075,0.019,-0.194,-0.231,-0.212,-0.144,-0.100
'0:00.062',-0.025,-0.089,-0.064,0.058,0.019,-0.077,0.019,-0.194,-0.231,-0.212,-0.144,-0.097
'0:00.063',-0.025,-0.091,-0.066,0.058,0.020,-0.078,0.013,-0.200,-0.238,-0.212,-0.144,-0.094
'0:00.064',-0.022,-0.093,-0.071,0.058,0.024,-0.082,0.013,-0.203,-0.234,-0.219,-0.150,-0.097
'0:00.065',-0.019,-0.091,-0.072,0.055,0.026,-0.081,0.013,-0.206,-0.238,-0.219,-0.150,-0.094
'0:00.066',-0.019,-0.097,-0.078,0.058,0.029,-0.087,0.006,-0.216,-0.241,-0.225,-0.150,-0.100
'0:00.067',-0.016,-0.100,-0.084,0.058,0.034,-0.092,0.006,-0.219,-0.244,-0.219,-0.150,-0.100
'0:00.068',-0.019,-0.097,-0.078,0.058,0.029,-0.087,0.006,-0.222,-0.244,-0.231,-0.150,-0.100
'0:00.069',-0.019,-0.094,-0.075,0.056,0.028,-0.084,0.006,-0.225,-0.244,-0.237,-0.150,-0.100
'0:00.070',-0.019,-0.094,-0.075,0.056,0.028,-0.084,0.003,-0.222,-0.244,-0.231,-0.153,-0.094
'0:00.071',-0.019,-0.091,-0.072,0.055,0.026,-0.081,0.000,-0.219,-0.244,-0.231,-0.150,-0.094
'0:00.072',-0.012,-0.088,-0.075,0.050,0.031,-0.081,-0.003,-0.222,-0.244,-0.228,-0.150,-0.091
'0:00.073',-0.009,-0.088,-0.078,0.049,0.034,-0.083,0.000,-0.231,-0.244,-0.231,-0.150,-0.087
'0:00.074',-0.017,-0.091,-0.074,0.054,0.028,-0.082,0.000,-0.231,-0.241,-0.231,-0.150,-0.094
'0:00.075',-0.019,-0.091,-0.072,0.055,0.026,-0.081,0.000,-0.231,-0.244,-0.231,-0.156,-0.094
'0:00.076',-0.023,-0.095,-0.072,0.059,0.024,-0.084,0.000,-0.231,-0.247,-0.231,-0.156,-0.100
'0:00.077',-0.028,-0.103,-0.075,0.066,0.023,-0.089,0.000,-0.231,-0.250,-0.237,-0.162,-0.100
'0:00.078',-0.037,-0.113,-0.075,0.075,0.019,-0.094,0.003,-0.231,-0.247,-0.237,-0.159,-0.103
'0:00.079',-0.044,-0.122,-0.078,0.083,0.017,-0.100,0.000,-0.231,-0.250,-0.237,-0.162,-0.100
'0:00.080',-0.046,-0.122,-0.076,0.084,0.015,-0.099,0.003,-0.231,-0.253,-0.237,-0.166,-0.106
'0:00.081',-0.047,-0.122,-0.075,0.084,0.014,-0.099,0.000,-0.225,-0.256,-0.244,-0.169,-0.106
'0:00.082',-0.050,-0.128,-0.078,0.089,0.014,-0.103,0.009,-0.231,-0.263,-0.250,-0.172,-0.109
'0:00.083',-0.053,-0.138,-0.084,0.096,0.016,-0.111,0.006,-0.238,-0.269,-0.256,-0.175,-0.125
'0:00.084',-0.058,-0.148,-0.091,0.103,0.016,-0.119,0.003,-0.247,-0.281,-0.269,-0.187,-0.131
'0:00.085',-0.066,-0.159,-0.094,0.113,0.014,-0.127,0.000,-0.263,-0.288,-0.275,-0.194,-0.138
'0:00.086',-0.067,-0.164,-0.097,0.116,0.014,-0.131,0.003,-0.269,-0.294,-0.284,-0.197,-0.138
'0:00.087',-0.069,-0.163,-0.094,0.116,0.012,-0.128,0.000,-0.269,-0.300,-0.288,-0.206,-0.144
'0:00.088',-0.069,-0.166,-0.097,0.117,0.014,-0.131,-0.003,-0.275,-0.306,-0.294,-0.206,-0.144
'0:00.089',-0.069,-0.163,-0.094,0.116,0.012,-0.128,-0.006,-0.275,-0.306,-0.294,-0.212,-0.144
'0:00.090',-0.067,-0.166,-0.098,0.117,0.015,-0.132,-0.003,-0.275,-0.306,-0.300,-0.212,-0.150
'0:00.091',-0.069,-0.166,-0.097,0.117,0.014,-0.131,0.000,-0.281,-0.306,-0.300,-0.212,-0.150
'0:00.092',-0.067,-0.169,-0.102,0.118,0.017,-0.136,0.000,-0.275,-0.309,-0.294,-0.216,-0.153
'0:00.093',-0.066,-0.172,-0.106,0.119,0.020,-0.139,0.000,-0.275,-0.306,-0.294,-0.219,-0.156
'0:00.094',-0.066,-0.173,-0.108,0.119,0.021,-0.141,0.000,-0.272,-0.306,-0.294,-0.216,-0.150
'0:00.095',-0.066,-0.175,-0.109,0.121,0.022,-0.142,0.000,-0.269,-0.306,-0.294,-0.212,-0.156
'0:00.096',-0.067,-0.171,-0.103,0.119,0.017,-0.137,-0.003,-0.272,-0.309,-0.291,-0.216,-0.153
'0:00.097',-0.066,-0.166,-0.100,0.116,0.017,-0.133,0.000,-0.269,-0.313,-0.294,-0.212,-0.156
'0:00.098',-0.066,-0.166,-0.100,0.116,0.017,-0.133,0.000,-0.272,-0.303,-0.297,-0.209,-0.153
'0:00.099',-0.059,-0.166,-0.106,0.113,0.023,-0.136,0.000,-0.275,-0.306,-0.300,-0.212,-0.150
'0:00.100',-0.064,-0.167,-0.103,0.116,0.019,-0.135,0.006,-0.272,-0.306,-0.300,-0.206,-0.150
'0:00.101',-0.066,-0.169,-0.103,0.117,0.019,-0.136,0.000,-0.275,-0.306,-0.300,-0.212,-0.150
'0:00.102',-0.069,-0.170,-0.101,0.119,0.016,-0.136,0.000,-0.266,-0.306,-0.303,-0.212,-0.150
'0:00.103',-0.072,-0.175,-0.103,0.124,0.016,-0.139,0.000,-0.269,-0.313,-0.300,-0.212,-0.150
'0:00.104',-0.072,-0.174,-0.102,0.123,0.015,-0.138,-0.006,-0.272,-0.309,-0.297,-0.212,-0.153
'0:00.105',-0.072,-0.169,-0.097,0.121,0.012,-0.133,-0.006,-0.281,-0.306,-0.300,-0.212,-0.150
'0:00.106',-0.069,-0.168,-0.099,0.118,0.015,-0.133,-0.006,-0.284,-0.306,-0.300,-0.212,-0.150
'0:00.107',-0.069,-0.169,-0.100,0.119,0.016,-0.134,-0.006,-0.288,-0.306,-0.300,-0.212,-0.150
'0:00.108',-0.070,-0.175,-0.105,0.122,0.017,-0.140,-0.006,-0.284,-0.306,-0.303,-0.216,-0.150
'0:00.109',-0.072,-0.175,-0.103,0.124,0.016,-0.139,-0.006,-0.281,-0.306,-0.306,-0.219,-0.150
'0:00.110',-0.072,-0.175,-0.103,0.124,0.016,-0.139,-0.006,-0.281,-0.309,-0.303,-0.216,-0.150
'0:00.111',-0.072,-0.175,-0.103,0.124,0.016,-0.139,-0.006,-0.281,-0.313,-0.300,-0.212,-0.150
'0:00.112',-0.075,-0.172,-0.097,0.124,0.011,-0.134,-0.006,-0.278,-0.313,-0.303,-0.212,-0.159
'0:00.113',-0.075,-0.172,-0.097,0.124,0.011,-0.134,-0.006,-0.281,-0.313,-0.300,-0.212,-0.156
'0:00.114',-0.074,-0.173,-0.099,0.124,0.012,-0.136,-0.006,-0.281,-0.316,-0.300,-0.212,-0.153
'0:00.115',-0.075,-0.172,-0.097,0.124,0.011,-0.134,0.000,-0.281,-0.313,-0.300,-0.212,-0.150
'0:00.116',-0.073,-0.173,-0.100,0.123,0.013,-0.137,-0.003,-0.281,-0.319,-0.300,-0.216,-0.150
'0:00.117',-0.075,-0.175,-0.100,0.125,0.012,-0.137,-0.006,-0.288,-0.319,-0.300,-0.219,-0.150
'0:00.118',-0.074,-0.175,-0.101,0.124,0.014,-0.138,-0.003,-0.288,-0.319,-0.306,-0.216,-0.153
'0:00.119',-0.075,-0.175,-0.100,0.125,0.012,-0.137,0.000,-0.288,-0.319,-0.306,-0.212,-0.156
'0:00.120',-0.075,-0.175,-0.100,0.125,0.012,-0.137,0.000,-0.291,-0.316,-0.300,-0.216,-0.156
'0:00.121',-0.075,-0.175,-0.100,0.125,0.012,-0.137,0.000,-0.288,-0.313,-0.300,-0.219,-0.156
'0:00.122',-0.076,-0.175,-0.099,0.126,0.011,-0.137,0.000,-0.284,-0.313,-0.297,-0.216,-0.150
'0:00.123',-0.078,-0.175,-0.097,0.127,0.009,-0.136,0.000,-0.288,-0.313,-0.294,-0.212,-0.156
'0:00.124',-0.074,-0.176,-0.103,0.125,0.014,-0.139,-0.003,-0.288,-0.313,-0.303,-0.212,-0.147
'0:00.125',-0.072,-0.178,-0.106,0.125,0.017,-0.142,0.000,-0.288,-0.313,-0.300,-0.212,-0.150
'0:00.126',-0.074,-0.178,-0.104,0.126,0.015,-0.141,-0.003,-0.281,-0.313,-0.300,-0.206,-0.153
'0:00.127',-0.072,-0.178,-0.106,0.125,0.017,-0.142,0.000,-0.281,-0.306,-0.300,-0.212,-0.156
'0:00.128',-0.075,-0.175,-0.100,0.125,0.012,-0.137,0.003,-0.275,-0.306,-0.300,-0.206,-0.147
'0:00.129',-0.078,-0.172,-0.094,0.125,0.007,-0.133,0.006,-0.281,-0.306,-0.300,-0.212,-0.150
'0:00.130',-0.075,-0.170,-0.095,0.122,0.010,-0.132,0.000,-0.281,-0.306,-0.303,-0.216,-0.153
'0:00.131',-0.075,-0.172,-0.097,0.124,0.011,-0.134,0.000,-0.281,-0.306,-0.306,-0.212,-0.150
'0:00.132',-0.078,-0.173,-0.095,0.126,0.008,-0.134,0.003,-0.278,-0.306,-0.300,-0.209,-0.150
'0:00.133',-0.078,-0.175,-0.097,0.127,0.009,-0.136,0.000,-0.275,-0.306,-0.300,-0.212,-0.150
'0:00.134',-0.077,-0.176,-0.099,0.127,0.011,-0.138,-0.003,-0.278,-0.309,-0.300,-0.212,-0.153
'0:00.135',-0.075,-0.175,-0.100,0.125,0.012,-0.137,-0.006,-0.281,-0.313,-0.300,-0.206,-0.156
'0:00.136',-0.069,-0.172,-0.103,0.121,0.017,-0.137,-0.006,-0.278,-0.306,-0.300,-0.206,-0.153
'0:00.137',-0.069,-0.169,-0.100,0.119,0.016,-0.134,-0.006,-0.281,-0.306,-0.300,-0.212,-0.156
'0:00.138',-0.072,-0.168,-0.096,0.120,0.012,-0.132,0.000,-0.281,-0.306,-0.300,-0.212,-0.156
'0:00.139',-0.072,-0.169,-0.097,0.121,0.012,-0.133,0.006,-0.275,-0.306,-0.300,-0.212,-0.163
'0:00.140',-0.075,-0.175,-0.100,0.125,0.012,-0.137,0.016,-0.272,-0.297,-0.294,-0.216,-0.156
'0:00.141',-0.078,-0.184,-0.106,0.131,0.014,-0.146,0.031,-0.263,-0.294,-0.294,-0.219,-0.156
'0:00.142',-0.079,-0.194,-0.114,0.137,0.017,-0.154,0.044,-0.256,-0.294,-0.294,-0.231,-0.175
'0:00.143',-0.084,-0.203,-0.119,0.144,0.017,-0.161,0.056,-0.250,-0.294,-0.294,-0.237,-0.181
'0:00.144',-0.084,-0.209,-0.125,0.147,0.020,-0.168,0.075,-0.244,-0.291,-0.303,-0.250,-0.194
'0:00.145',-0.084,-0.213,-0.128,0.149,0.022,-0.171,0.088,-0.231,-0.288,-0.306,-0.256,-0.206
'0:00.146',-0.086,-0.217,-0.131,0.151,0.022,-0.174,0.106,-0.219,-0.281,-0.313,-0.269,-0.212
'0:00.147',-0.084,-0.219,-0.134,0.152,0.025,-0.177,0.125,-0.206,-0.281,-0.313,-0.275,-0.225
'0:00.148',-0.081,-0.222,-0.141,0.152,0.029,-0.181,0.137,-0.200,-0.278,-0.316,-0.281,-0.231
'0:00.149',-0.078,-0.213,-0.134,0.146,0.028,-0.174,0.156,-0.188,-0.275,-0.319,-0.287,-0.237
'0:00.150',-0.072,-0.208,-0.136,0.140,0.032,-0.173,0.162,-0.175,-0.263,-0.325,-0.291,-0.241
'0:00.151',-0.069,-0.203,-0.134,0.136,0.032,-0.169,0.175,-0.169,-0.256,-0.325,-0.294,-0.244
'0:00.152',-0.064,-0.197,-0.133,0.131,0.034,-0.165,0.181,-0.156,-0.241,-0.319,-0.291,-0.250
'0:00.153',-0.056,-0.184,-0.128,0.121,0.036,-0.156,0.181,-0.131,-0.219,-0.300,-0.281,-0.250
'0:00.154',-0.045,-0.169,-0.124,0.107,0.039,-0.146,0.181,-0.109,-0.203,-0.275,-0.272,-0.247
'0:00.155',-0.041,-0.144,-0.103,0.092,0.031,-0.124,0.181,-0.081,-0.175,-0.250,-0.244,-0.225
'0:00.156',-0.033,-0.111,-0.078,0.072,0.022,-0.095,0.188,-0.066,-0.144,-0.219,-0.222,-0.200
'0:00.157',-0.031,-0.075,-0.044,0.053,0.006,-0.059,0.188,-0.056,-0.119,-0.194,-0.194,-0.175
'0:00.158',-0.028,-0.036,-0.008,0.032,-0.011,-0.022,0.181,-0.050,-0.094,-0.166,-0.156,-0.147
'0:00.159',-0.022,0.006,0.028,0.008,-0.025,0.017,0.181,-0.025,-0.056,-0.125,-0.112,-0.106
'0:00.160',-0.012,0.052,0.064,-0.019,-0.039,0.058,0.178,0.000,-0.019,-0.084,-0.062,-0.069
'0:00.161',0.000,0.100,0.100,-0.050,-0.050,0.100,0.169,0.031,0.031,-0.025,0.000,-0.019
'0:00.162',0.006,0.153,0.147,-0.079,-0.071,0.150,0.156,0.066,0.075,0.028,0.050,0.038
'0:00.163',0.025,0.200,0.175,-0.113,-0.075,0.188,0.131,0.100,0.131,0.100,0.113,0.087
'0:00.164',0.047,0.242,0.196,-0.144,-0.074,0.219,0.103,0.138,0.194,0.163,0.178,0.141
'0:00.165',0.062,0.300,0.237,-0.181,-0.087,0.269,0.069,0.175,0.256,0.231,0.250,0.206
'0:00.166',0.080,0.358,0.278,-0.219,-0.099,0.318,0.050,0.216,0.322,0.309,0.328,0.269
'0:00.167',0.097,0.412,0.316,-0.254,-0.109,0.364,0.031,0.275,0.394,0.406,0.413,0.338
'0:00.168',0.117,0.471,0.353,-0.294,-0.118,0.412,0.003,0.325,0.469,0.500,0.500,0.412
'0:00.169',0.137,0.537,0.400,-0.338,-0.131,0.469,-0.031,0.394,0.563,0.619,0.600,0.494
'0:00.170',0.164,0.596,0.432,-0.379,-0.134,0.514,-0.062,0.475,0.669,0.737,0.700,0.572
'0:00.171',0.191,0.669,0.478,-0.429,-0.144,0.573,-0.106,0.544,0.769,0.862,0.813,0.663
'0:00.172',0.220,0.749,0.529,-0.484,-0.154,0.639,-0.153,0.616,0.872,0.984,0.922,0.753
'0:00.173',0.247,0.828,0.581,-0.538,-0.168,0.704,-0.200,0.675,0.975,1.112,1.038,0.844
'0:00.174',0.264,0.906,0.642,-0.585,-0.189,0.774,-0.234,0.741,1.075,1.237,1.147,0.944
'0:00.175',0.278,0.978,0.700,-0.628,-0.211,0.839,-0.275,0.775,1.162,1.350,1.256,1.025
'0:00.176',0.297,1.054,0.758,-0.676,-0.231,0.906,-0.322,0.800,1.241,1.462,1.359,1.106
'0:00.177',0.309,1.109,0.800,-0.709,-0.246,0.954,-0.362,0.831,1.319,1.569,1.444,1.169
'0:00.178',0.317,1.147,0.829,-0.732,-0.256,0.988,-0.412,0.869,1.400,1.675,1.528,1.238
'0:00.179',0.316,1.175,0.859,-0.745,-0.272,1.017,-0.425,0.900,1.469,1.763,1.581,1.269
'0:00.180',0.317,1.198,0.881,-0.758,-0.282,1.039,-0.444,0.931,1.519,1.831,1.631,1.297
'0:00.181',0.312,1.222,0.909,-0.767,-0.299,1.066,-0.462,0.956,1.575,1.900,1.675,1.325
'0:00.182',0.308,1.250,0.942,-0.779,-0.318,1.096,-0.487,0.975,1.628,1.962,1.719,1.350
'0:00.183',0.294,1.281,0.987,-0.787,-0.347,1.134,-0.506,0.981,1.663,2.000,1.756,1.369
'0:00.184',0.276,1.325,1.049,-0.801,-0.386,1.187,-0.519,0.987,1.694,2.044,1.788,1.397
'0:00.185',0.253,1.300,1.047,-0.776,-0.397,1.173,-0.519,0.981,1.706,2.050,1.781,1.381
'0:00.186',0.231,1.254,1.023,-0.743,-0.396,1.139,-0.503,0.994,1.734,2.072,1.772,1.353
'0:00.187',0.222,1.175,0.953,-0.698,-0.366,1.064,-0.519,0.975,1.731,2.075,1.744,1.300
'0:00.188',0.214,1.080,0.866,-0.647,-0.326,0.973,-0.544,0.934,1.725,2.066,1.706,1.253
'0:00.189',0.206,0.987,0.781,-0.597,-0.287,0.884,-0.575,0.862,1.681,2.038,1.650,1.194
'0:00.190',0.197,0.896,0.699,-0.546,-0.251,0.797,-0.600,0.794,1.628,2.003,1.591,1.131
'0:00.191',0.194,0.822,0.628,-0.508,-0.217,0.725,-0.625,0.731,1.581,1.969,1.525,1.069
'0:00.192',0.189,0.756,0.567,-0.473,-0.189,0.662,-0.662,0.688,1.544,1.941,1.462,1.013
'0:00.193',0.184,0.706,0.522,-0.445,-0.169,0.614,-0.687,0.631,1.494,1.888,1.394,0.950
'0:00.194',0.171,0.661,0.490,-0.416,-0.160,0.575,-0.706,0.581,1.431,1.825,1.328,0.897
'0:00.195',0.147,0.600,0.453,-0.373,-0.153,0.526,-0.706,0.488,1.312,1.687,1.213,0.819
'0:00.196',0.122,0.542,0.420,-0.332,-0.149,0.481,-0.697,0.391,1.184,1.550,1.103,0.737
'0:00.197',0.103,0.466,0.362,-0.284,-0.130,0.414,-0.675,0.313,1.056,1.400,0.969,0.637
'0:00.198',0.084,0.381,0.297,-0.233,-0.106,0.339,-0.647,0.241,0.950,1.250,0.828,0.541
'0:00.199',0.069,0.278,0.209,-0.173,-0.071,0.244,-0.612,0.175,0.819,1.081,0.675,0.438
'0:00.200',0.051,0.177,0.126,-0.114,-0.038,0.151,-0.591,0.113,0.678,0.909,0.522,0.325
'0:00.201',0.031,0.097,0.066,-0.064,-0.017,0.081,-0.562,0.031,0.525,0.725,0.381,0.238
'0:00.202',0.012,0.014,0.002,-0.013,0.005,0.008,-0.531,-0.044,0.366,0.541,0.244,0.147
'0:00.203',-0.006,-0.041,-0.034,0.024,0.014,-0.037,-0.506,-0.138,0.200,0.356,0.138,0.081
'0:00.204',-0.025,-0.092,-0.067,0.059,0.021,-0.079,-0.475,-0.247,0.028,0.159,0.038,0.013
'0:00.205',-0.044,-0.128,-0.084,0.086,0.020,-0.106,-0.450,-0.363,-0.150,-0.025,-0.044,-0.038
'0:00.206',-0.061,-0.164,-0.103,0.113,0.021,-0.133,-0.431,-0.469,-0.322,-0.200,-0.125,-0.081
'0:00.207',-0.066,-0.191,-0.125,0.128,0.029,-0.158,-0.419,-0.525,-0.425,-0.294,-0.169,-0.106
'0:00.208',-0.069,-0.219,-0.150,0.144,0.041,-0.184,-0.412,-0.572,-0.506,-0.366,-0.206,-0.134
'0:00.209',-0.069,-0.234,-0.166,0.152,0.048,-0.200,-0.406,-0.569,-0.519,-0.375,-0.219,-0.144
'0:00.210',-0.062,-0.244,-0.181,0.153,0.059,-0.213,-0.387,-0.559,-0.513,-0.372,-0.219,-0.150
'0:00.211',-0.066,-0.244,-0.178,0.155,0.056,-0.211,-0.369,-0.538,-0.494,-0.362,-0.219,-0.150
'0:00.212',-0.064,-0.239,-0.174,0.152,0.055,-0.207,-0.356,-0.516,-0.469,-0.344,-0.209,-0.150
'0:00.213',-0.062,-0.228,-0.166,0.146,0.051,-0.197,-0.337,-0.488,-0.444,-0.319,-0.206,-0.144
'0:00.214',-0.061,-0.216,-0.155,0.138,0.047,-0.186,-0.312,-0.456,-0.419,-0.297,-0.191,-0.138
'0:00.215',-0.062,-0.206,-0.144,0.134,0.041,-0.175,-0.287,-0.431,-0.394,-0.281,-0.181,-0.131
'0:00.216',-0.061,-0.197,-0.136,0.129,0.037,-0.166,-0.262,-0.406,-0.372,-0.269,-0.169,-0.128
'0:00.217',-0.059,-0.188,-0.128,0.124,0.034,-0.158,-0.237,-0.375,-0.350,-0.256,-0.169,-0.125
'0:00.218',-0.056,-0.183,-0.126,0.119,0.035,-0.154,-0.213,-0.347,-0.328,-0.244,-0.159,-0.122
'0:00.219',-0.053,-0.181,-0.128,0.117,0.038,-0.155,-0.188,-0.319,-0.306,-0.244,-0.162,-0.119
'0:00.220',-0.048,-0.175,-0.127,0.112,0.039,-0.151,-0.169,-0.300,-0.297,-0.234,-0.166,-0.122
'0:00.221',-0.050,-0.169,-0.119,0.109,0.034,-0.144,-0.144,-0.275,-0.281,-0.219,-0.162,-0.119
'0:00.222',-0.049,-0.158,-0.109,0.104,0.030,-0.134,-0.131,-0.253,-0.259,-0.216,-0.156,-0.119
'0:00.223',-0.044,-0.150,-0.106,0.097,0.031,-0.128,-0.112,-0.238,-0.244,-0.206,-0.150,-0.112
'0:00.224',-0.044,-0.138,-0.094,0.091,0.025,-0.116,-0.094,-0.219,-0.228,-0.203,-0.137,-0.109
'0:00.225',-0.044,-0.131,-0.088,0.087,0.022,-0.109,-0.075,-0.206,-0.219,-0.194,-0.131,-0.100
'0:00.226',-0.042,-0.131,-0.089,0.087,0.023,-0.110,-0.069,-0.197,-0.219,-0.197,-0.134,-0.100
'0:00.227',-0.044,-0.128,-0.084,0.086,0.020,-0.106,-0.056,-0.194,-0.213,-0.194,-0.137,-0.100
'0:00.228',-0.044,-0.127,-0.083,0.086,0.019,-0.105,-0.056,-0.188,-0.206,-0.188,-0.134,-0.100
'0:00.229',-0.044,-0.119,-0.075,0.081,0.016,-0.097,-0.056,-0.181,-0.200,-0.188,-0.137,-0.094
'0:00.230',-0.041,-0.114,-0.074,0.077,0.016,-0.094,-0.047,-0.178,-0.197,-0.184,-0.131,-0.100
'0:00.231',-0.037,-0.109,-0.072,0.074,0.017,-0.091,-0.044,-0.175,-0.194,-0.181,-0.131,-0.094
'0:00.232',-0.042,-0.109,-0.068,0.076,0.012,-0.089,-0.034,-0.175,-0.184,-0.178,-0.131,-0.094
'0:00.233',-0.044,-0.109,-0.066,0.077,0.011,-0.087,-0.031,-0.169,-0.181,-0.175,-0.131,-0.094
'0:00.234',-0.044,-0.106,-0.063,0.075,0.009,-0.084,-0.028,-0.166,-0.181,-0.172,-0.128,-0.094
'0:00.235',-0.044,-0.103,-0.059,0.074,0.007,-0.081,-0.031,-0.169,-0.187,-0.175,-0.131,-0.094
'0:00.236',-0.042,-0.103,-0.061,0.073,0.009,-0.082,-0.025,-0.166,-0.178,-0.172,-0.131,-0.091
'0:00.237',-0.044,-0.103,-0.059,0.074,0.007,-0.081,-0.025,-0.163,-0.181,-0.175,-0.131,-0.094
'0:00.238',-0.044,-0.103,-0.059,0.074,0.007,-0.081,-0.016,-0.163,-0.181,-0.175,-0.137,-0.091
'0:00.239',-0.044,-0.103,-0.059,0.074,0.007,-0.081,-0.012,-0.156,-0.181,-0.175,-0.137,-0.087
'0:00.240',-0.044,-0.103,-0.059,0.074,0.007,-0.081,-0.006,-0.153,-0.178,-0.184,-0.131,-0.094
'0:00.241',-0.047,-0.103,-0.056,0.075,0.004,-0.080,-0.006,-0.150,-0.175,-0.188,-0.131,-0.094
'0:00.242',-0.047,-0.100,-0.053,0.074,0.003,-0.077,0.000,-0.156,-0.175,-0.188,-0.131,-0.094
'0:00.243',-0.047,-0.103,-0.056,0.075,0.004,-0.080,0.000,-0.156,-0.175,-0.188,-0.131,-0.094
'0:00.244',-0.049,-0.103,-0.054,0.076,0.002,-0.079,0.006,-0.156,-0.175,-0.184,-0.134,-0.097
'0:00.245',-0.047,-0.103,-0.056,0.075,0.004,-0.080,0.006,-0.156,-0.175,-0.181,-0.131,-0.100
'0:00.246',-0.048,-0.108,-0.059,0.078,0.006,-0.084,0.006,-0.156,-0.178,-0.184,-0.134,-0.100
'0:00.247',-0.047,-0.106,-0.059,0.077,0.006,-0.083,0.006,-0.156,-0.181,-0.188,-0.137,-0.100
'0:00.248',-0.047,-0.106,-0.059,0.077,0.006,-0.083,0.003,-0.156,-0.175,-0.188,-0.141,-0.106
'0:00.249',-0.047,-0.106,-0.059,0.077,0.006,-0.083,0.000,-0.156,-0.181,-0.188,-0.144,-0.106
'0:00.250',-0.042,-0.104,-0.062,0.074,0.009,-0.083,0.003,-0.153,-0.184,-0.191,-0.141,-0.106
'0:00.251',-0.041,-0.106,-0.066,0.074,0.012,-0.086,0.006,-0.150,-0.181,-0.194,-0.137,-0.106
'0:00.252',-0.037,-0.105,-0.068,0.071,0.015,-0.086,0.003,-0.153,-0.181,-0.194,-0.137,-0.106
'0:00.253',-0.034,-0.100,-0.066,0.067,0.016,-0.083,0.000,-0.156,-0.181,-0.194,-0.137,-0.106
'0:00.254',-0.037,-0.100,-0.063,0.069,0.012,-0.081,0.003,-0.156,-0.184,-0.191,-0.137,-0.112
'0:00.255',-0.041,-0.097,-0.056,0.069,0.007,-0.077,0.006,-0.150,-0.187,-0.188,-0.137,-0.112
'0:00.256',-0.042,-0.096,-0.054,0.069,0.006,-0.075,0.016,-0.147,-0.184,-0.191,-0.134,-0.103
'0:00.257',-0.044,-0.097,-0.053,0.071,0.004,-0.075,0.019,-0.144,-0.181,-0.194,-0.131,-0.100
'0:00.258',-0.042,-0.100,-0.058,0.071,0.007,-0.079,0.016,-0.144,-0.184,-0.191,-0.134,-0.097
'0:00.259',-0.041,-0.100,-0.059,0.071,0.009,-0.080,0.013,-0.138,-0.181,-0.188,-0.137,-0.100
'0:00.260',-0.044,-0.100,-0.056,0.072,0.006,-0.078,0.019,-0.138,-0.178,-0.181,-0.134,-0.100
'0:00.261',-0.041,-0.097,-0.056,0.069,0.007,-0.077,0.019,-0.138,-0.175,-0.181,-0.131,-0.094
'0:00.262',-0.041,-0.096,-0.055,0.068,0.007,-0.076,0.006,-0.138,-0.175,-0.181,-0.134,-0.103
'0:00.263',-0.041,-0.094,-0.053,0.067,0.006,-0.074,0.006,-0.131,-0.175,-0.181,-0.137,-0.100
'0:00.264',-0.042,-0.095,-0.053,0.069,0.006,-0.074,0.013,-0.134,-0.172,-0.178,-0.137,-0.097
'0:00.265',-0.041,-0.097,-0.056,0.069,0.007,-0.077,0.013,-0.138,-0.169,-0.175,-0.137,-0.094
'0:00.266',-0.039,-0.095,-0.056,0.067,0.008,-0.076,0.013,-0.138,-0.172,-0.178,-0.137,-0.094
'0:00.267',-0.037,-0.097,-0.059,0.067,0.011,-0.078,0.013,-0.138,-0.175,-0.175,-0.137,-0.094
'0:00.268',-0.041,-0.097,-0.056,0.069,0.007,-0.077,0.013,-0.138,-0.169,-0.172,-0.131,-0.094
'0:00.269',-0.044,-0.097,-0.053,0.071,0.004,-0.075,0.013,-0.138,-0.169,-0.169,-0.131,-0.087
'0:00.270',-0.045,-0.095,-0.050,0.070,0.002,-0.072,0.016,-0.134,-0.166,-0.169,-0.131,-0.094
'0:00.271',-0.047,-0.097,-0.050,0.072,0.001,-0.074,0.019,-0.125,-0.162,-0.169,-0.131,-0.094
'0:00.272',-0.046,-0.094,-0.048,0.070,0.001,-0.071,0.016,-0.122,-0.156,-0.169,-0.128,-0.094
'0:00.273',-0.044,-0.094,-0.050,0.069,0.003,-0.072,0.013,-0.119,-0.156,-0.169,-0.125,-0.087
'0:00.274',-0.042,-0.094,-0.051,0.068,0.004,-0.072,0.019,-0.119,-0.159,-0.175,-0.128,-0.087
'0:00.275',-0.041,-0.094,-0.053,0.067,0.006,-0.074,0.013,-0.119,-0.156,-0.175,-0.131,-0.087
'0:00.276',-0.042,-0.094,-0.052,0.068,0.005,-0.073,0.022,-0.113,-0.156,-0.175,-0.131,-0.091
'0:00.277',-0.044,-0.094,-0.050,0.069,0.003,-0.072,0.019,-0.113,-0.156,-0.175,-0.131,-0.094
'0:00.278',-0.039,-0.094,-0.054,0.067,0.007,-0.074,0.022,-0.109,-0.153,-0.169,-0.128,-0.094
'0:00.279',-0.041,-0.094,-0.053,0.067,0.006,-0.074,0.019,-0.113,-0.150,-0.169,-0.131,-0.094
'0:00.280',-0.036,-0.093,-0.056,0.064,0.010,-0.074,0.022,-0.113,-0.153,-0.166,-0.128,-0.087
'0:00.281',-0.034,-0.088,-0.053,0.061,0.009,-0.071,0.025,-0.113,-0.150,-0.163,-0.125,-0.087
'0:00.282',-0.033,-0.086,-0.054,0.059,0.011,-0.070,0.025,-0.106,-0.144,-0.166,-0.128,-0.087
'0:00.283',-0.034,-0.081,-0.047,0.058,0.006,-0.064,0.025,-0.113,-0.144,-0.169,-0.131,-0.087
'0:00.284',-0.034,-0.078,-0.044,0.056,0.004,-0.061,0.016,-0.113,-0.147,-0.159,-0.125,-0.094
'0:00.285',-0.034,-0.078,-0.044,0.056,0.004,-0.061,0.019,-0.106,-0.150,-0.156,-0.125,-0.087
'0:00.286',-0.036,-0.083,-0.047,0.059,0.006,-0.065,0.019,-0.100,-0.144,-0.150,-0.125,-0.087
'0:00.287',-0.037,-0.084,-0.047,0.061,0.004,-0.066,0.019,-0.100,-0.144,-0.150,-0.119,-0.087
'0:00.288',-0.034,-0.081,-0.047,0.058,0.006,-0.064,0.022,-0.103,-0.141,-0.153,-0.119,-0.081
'0:00.289',-0.034,-0.081,-0.047,0.058,0.006,-0.064,0.025,-0.106,-0.137,-0.156,-0.119,-0.081
'0:00.290',-0.034,-0.081,-0.047,0.058,0.006,-0.064,0.025,-0.094,-0.134,-0.150,-0.116,-0.081
'0:00.291',-0.034,-0.081,-0.047,0.058,0.006,-0.064,0.025,-0.088,-0.125,-0.150,-0.112,-0.081
'0:00.292',-0.034,-0.077,-0.043,0.056,0.004,-0.060,0.025,-0.084,-0.128,-0.144,-0.112,-0.081
'0:00.293',-0.034,-0.075,-0.041,0.055,0.003,-0.058,0.031,-0.075,-0.125,-0.138,-0.106,-0.081
'0:00.294',-0.028,-0.072,-0.044,0.050,0.007,-0.058,0.028,-0.075,-0.125,-0.138,-0.106,-0.081
'0:00.295',-0.022,-0.069,-0.047,0.046,0.012,-0.058,0.031,-0.075,-0.125,-0.138,-0.106,-0.081
'0:00.296',-0.025,-0.070,-0.045,0.047,0.010,-0.057,0.031,-0.081,-0.125,-0.134,-0.106,-0.078
'0:00.297',-0.028,-0.069,-0.041,0.049,0.006,-0.055,0.031,-0.081,-0.119,-0.131,-0.106,-0.075
'0:00.298',-0.029,-0.069,-0.039,0.049,0.005,-0.054,0.034,-0.081,-0.119,-0.134,-0.100,-0.069
'0:00.299',-0.031,-0.072,-0.041,0.052,0.004,-0.056,0.031,-0.075,-0.113,-0.138,-0.106,-0.069
'0:00.300',-0.028,-0.069,-0.041,0.049,0.006,-0.055,0.031,-0.075,-0.113,-0.131,-0.100,-0.072
'0:00.301',-0.031,-0.069,-0.038,0.050,0.003,-0.053,0.031,-0.069,-0.106,-0.131,-0.100,-0.069
'0:00.302',-0.031,-0.072,-0.041,0.052,0.004,-0.056,0.031,-0.059,-0.100,-0.125,-0.091,-0.069
'0:00.303',-0.028,-0.072,-0.044,0.050,0.007,-0.058,0.031,-0.056,-0.094,-0.119,-0.094,-0.069
'0:00.304',-0.029,-0.068,-0.038,0.049,0.004,-0.053,0.025,-0.063,-0.100,-0.116,-0.097,-0.069
'0:00.305',-0.028,-0.063,-0.034,0.046,0.003,-0.049,0.025,-0.056,-0.100,-0.119,-0.094,-0.069
'0:00.306',-0.028,-0.063,-0.034,0.046,0.003,-0.049,0.022,-0.059,-0.100,-0.112,-0.094,-0.069
'0:00.307',-0.028,-0.059,-0.031,0.044,0.001,-0.046,0.025,-0.056,-0.094,-0.112,-0.087,-0.062
'0:00.308',-0.019,-0.058,-0.039,0.039,0.010,-0.049,0.025,-0.050,-0.094,-0.116,-0.087,-0.062
'0:00.309',-0.019,-0.056,-0.038,0.037,0.009,-0.047,0.025,-0.050,-0.088,-0.112,-0.087,-0.062
'0:00.310',-0.019,-0.056,-0.038,0.037,0.009,-0.047,0.022,-0.050,-0.091,-0.116,-0.087,-0.062
'0:00.311',-0.019,-0.053,-0.034,0.036,0.007,-0.044,0.019,-0.044,-0.094,-0.112,-0.087,-0.062
'0:00.312',-0.017,-0.053,-0.036,0.035,0.009,-0.045,0.022,-0.044,-0.088,-0.112,-0.081,-0.062
'0:00.313',-0.019,-0.053,-0.034,0.036,0.007,-0.044,0.025,-0.038,-0.088,-0.106,-0.081,-0.062
'0:00.314',-0.019,-0.050,-0.031,0.034,0.006,-0.041,0.025,-0.038,-0.081,-0.103,-0.081,-0.062
'0:00.315',-0.019,-0.044,-0.025,0.031,0.003,-0.034,0.025,-0.031,-0.075,-0.100,-0.081,-0.056
'0:00.316',-0.017,-0.044,-0.026,0.031,0.004,-0.035,0.025,-0.028,-0.069,-0.094,-0.075,-0.053
'0:00.317',-0.012,-0.041,-0.028,0.027,0.007,-0.034,0.025,-0.019,-0.063,-0.081,-0.075,-0.050
'0:00.318',-0.014,-0.042,-0.028,0.028,0.007,-0.035,0.025,-0.022,-0.056,-0.084,-0.075,-0.050
'0:00.319',-0.016,-0.041,-0.025,0.028,0.004,-0.033,0.025,-0.019,-0.056,-0.081,-0.069,-0.050
'0:00.320',-0.016,-0.044,-0.028,0.030,0.006,-0.036,0.025,-0.022,-0.056,-0.078,-0.072,-0.047
'0:00.321',-0.016,-0.041,-0.025,0.028,0.004,-0.033,0.025,-0.019,-0.056,-0.081,-0.075,-0.050
'0:00.322',-0.017,-0.038,-0.021,0.027,0.002,-0.029,0.022,-0.016,-0.053,-0.072,-0.066,-0.050
'0:00.323',-0.016,-0.038,-0.022,0.027,0.003,-0.030,0.025,-0.006,-0.044,-0.069,-0.062,-0.050
'0:00.324',-0.017,-0.038,-0.021,0.027,0.002,-0.029,0.028,-0.003,-0.044,-0.063,-0.059,-0.053
'0:00.325',-0.016,-0.041,-0.025,0.028,0.004,-0.033,0.025,-0.006,-0.038,-0.063,-0.062,-0.050
'0:00.326',-0.011,-0.041,-0.029,0.026,0.009,-0.035,0.031,0.003,-0.038,-0.059,-0.059,-0.047
'0:00.327',-0.012,-0.038,-0.025,0.025,0.006,-0.031,0.031,0.012,-0.031,-0.063,-0.056,-0.044
'0:00.328',-0.009,-0.036,-0.027,0.023,0.009,-0.032,0.025,0.009,-0.031,-0.053,-0.056,-0.044
'0:00.329',-0.006,-0.031,-0.025,0.019,0.009,-0.028,0.025,0.012,-0.025,-0.050,-0.050,-0.044
'0:00.330',-0.003,-0.028,-0.025,0.016,0.011,-0.027,0.025,0.022,-0.019,-0.044,-0.050,-0.038
'0:00.331',-0.003,-0.028,-0.025,0.016,0.011,-0.027,0.025,0.025,-0.013,-0.038,-0.050,-0.038
'0:00.332',-0.001,-0.026,-0.025,0.014,0.012,-0.026,0.022,0.031,-0.016,-0.041,-0.044,-0.034
'0:00.333',0.000,-0.025,-0.025,0.012,0.012,-0.025,0.025,0.037,-0.013,-0.038,-0.044,-0.031
'0:00.334',-0.001,-0.024,-0.023,0.012,0.011,-0.023,0.025,0.034,-0.006,-0.041,-0.047,-0.038
'0:00.335',-0.003,-0.022,-0.019,0.012,0.007,-0.021,0.025,0.037,0.000,-0.038,-0.044,-0.038
'0:00.336',-0.003,-0.020,-0.017,0.012,0.007,-0.019,0.019,0.044,0.000,-0.028,-0.047,-0.038
'0:00.337',0.000,-0.019,-0.019,0.009,0.009,-0.019,0.019,0.050,0.006,-0.025,-0.044,-0.031
'0:00.338',0.000,-0.016,-0.016,0.008,0.007,-0.016,0.019,0.050,0.012,-0.019,-0.034,-0.028
'0:00.339',0.003,-0.009,-0.013,0.003,0.007,-0.011,0.025,0.056,0.019,-0.013,-0.031,-0.019
'0:00.340',0.006,-0.005,-0.011,-0.001,0.009,-0.008,0.025,0.066,0.025,-0.003,-0.028,-0.019
'0:00.341',0.006,-0.003,-0.009,-0.001,0.007,-0.006,0.025,0.075,0.031,0.000,-0.019,-0.019
'0:00.342',0.009,-0.004,-0.014,-0.003,0.011,-0.009,0.025,0.081,0.034,0.003,-0.019,-0.016
'0:00.343',0.009,-0.003,-0.013,-0.003,0.011,-0.008,0.025,0.088,0.044,0.006,-0.012,-0.019
'0:00.344',0.012,0.000,-0.013,-0.006,0.012,-0.006,0.028,0.094,0.050,0.013,-0.012,-0.019
'0:00.345',0.012,0.003,-0.009,-0.008,0.011,-0.003,0.031,0.100,0.056,0.019,-0.006,-0.019
'0:00.346',0.008,0.003,-0.005,-0.006,0.006,-0.001,0.031,0.103,0.063,0.019,-0.009,-0.009
'0:00.347',0.009,0.003,-0.006,-0.006,0.007,-0.002,0.031,0.113,0.069,0.031,-0.006,-0.006
'0:00.348',0.012,0.006,-0.006,-0.009,0.009,0.000,0.041,0.122,0.072,0.031,0.003,0.000
'0:00.349',0.019,0.009,-0.009,-0.014,0.014,0.000,0.038,0.125,0.075,0.038,0.006,0.000
'0:00.350',0.022,0.008,-0.014,-0.015,0.017,-0.003,0.031,0.131,0.084,0.047,0.009,0.009
'0:00.351',0.022,0.009,-0.013,-0.016,0.017,-0.002,0.031,0.144,0.094,0.056,0.019,0.013
'0:00.352',0.019,0.009,-0.009,-0.014,0.014,0.000,0.031,0.147,0.103,0.062,0.022,0.016
'0:00.353',0.019,0.016,-0.003,-0.017,0.011,0.006,0.031,0.150,0.113,0.069,0.025,0.013
'0:00.354',0.023,0.019,-0.004,-0.021,0.014,0.007,0.034,0.153,0.119,0.075,0.028,0.013
'0:00.355',0.028,0.022,-0.006,-0.025,0.017,0.008,0.031,0.156,0.125,0.081,0.031,0.013
'0:00.356',0.028,0.024,-0.004,-0.026,0.016,0.009,0.031,0.166,0.128,0.081,0.041,0.022
'0:00.357',0.025,0.025,0.000,-0.025,0.012,0.013,0.031,0.175,0.137,0.094,0.044,0.025
'0:00.358',0.029,0.026,-0.003,-0.027,0.016,0.011,0.025,0.181,0.137,0.100,0.044,0.031
'0:00.359',0.028,0.031,0.003,-0.029,0.012,0.017,0.025,0.194,0.144,0.106,0.044,0.031
'0:00.360',0.031,0.031,0.000,-0.031,0.016,0.016,0.028,0.200,0.153,0.109,0.053,0.038
'0:00.361',0.034,0.037,0.003,-0.036,0.016,0.020,0.031,0.206,0.162,0.112,0.056,0.038
'0:00.362',0.039,0.039,0.001,-0.039,0.019,0.020,0.034,0.222,0.172,0.119,0.063,0.041
'0:00.363',0.041,0.041,0.000,-0.041,0.020,0.020,0.038,0.231,0.181,0.125,0.069,0.050
'0:00.364',0.042,0.044,0.001,-0.043,0.021,0.023,0.038,0.234,0.194,0.141,0.069,0.047
'0:00.365',0.044,0.044,0.000,-0.044,0.022,0.022,0.038,0.244,0.200,0.150,0.075,0.050
'0:00.366',0.044,0.050,0.006,-0.047,0.019,0.028,0.034,0.250,0.212,0.156,0.078,0.050
'0:00.367',0.044,0.053,0.009,-0.048,0.017,0.031,0.031,0.263,0.219,0.169,0.081,0.056
'0:00.368',0.046,0.053,0.008,-0.049,0.019,0.030,0.034,0.272,0.225,0.175,0.081,0.056
'0:00.369',0.047,0.059,0.013,-0.053,0.017,0.036,0.038,0.288,0.237,0.187,0.088,0.062
'0:00.370',0.050,0.061,0.011,-0.056,0.019,0.036,0.038,0.294,0.244,0.194,0.097,0.066
'0:00.371',0.056,0.062,0.006,-0.059,0.025,0.034,0.038,0.306,0.256,0.200,0.106,0.075
'0:00.372',0.061,0.072,0.011,-0.066,0.024,0.041,0.034,0.316,0.266,0.206,0.103,0.069
'0:00.373',0.062,0.078,0.016,-0.070,0.023,0.047,0.031,0.325,0.269,0.219,0.113,0.069
'0:00.374',0.064,0.077,0.013,-0.071,0.026,0.044,0.031,0.334,0.281,0.225,0.119,0.075
'0:00.375',0.062,0.081,0.019,-0.072,0.022,0.050,0.038,0.350,0.294,0.237,0.125,0.075
'0:00.376',0.062,0.084,0.022,-0.073,0.020,0.053,0.041,0.363,0.300,0.250,0.125,0.081
'0:00.377',0.062,0.087,0.025,-0.075,0.019,0.056,0.044,0.375,0.313,0.263,0.131,0.087
'0:00.378',0.067,0.094,0.027,-0.080,0.020,0.060,0.034,0.381,0.331,0.266,0.138,0.087
'0:00.379',0.072,0.097,0.025,-0.084,0.023,0.061,0.038,0.394,0.344,0.275,0.150,0.094
'0:00.380',0.076,0.099,0.023,-0.088,0.027,0.061,0.038,0.406,0.362,0.284,0.159,0.103
'0:00.381',0.081,0.103,0.022,-0.092,0.029,0.063,0.038,0.419,0.375,0.300,0.162,0.106
'0:00.382',0.086,0.109,0.024,-0.098,0.031,0.066,0.038,0.438,0.387,0.312,0.175,0.109
'0:00.383',0.091,0.116,0.025,-0.103,0.032,0.070,0.038,0.444,0.400,0.325,0.181,0.113
'0:00.384',0.091,0.119,0.028,-0.104,0.031,0.073,0.041,0.456,0.416,0.341,0.191,0.119
'0:00.385',0.091,0.122,0.031,-0.106,0.029,0.076,0.044,0.475,0.431,0.356,0.200,0.125
'0:00.386',0.094,0.128,0.034,-0.111,0.029,0.081,0.041,0.488,0.444,0.366,0.203,0.125
'0:00.387',0.097,0.137,0.041,-0.117,0.028,0.089,0.038,0.500,0.456,0.375,0.212,0.131
'0:00.388',0.108,0.141,0.033,-0.124,0.037,0.087,0.038,0.516,0.466,0.388,0.219,0.138
'0:00.389',0.112,0.144,0.031,-0.128,0.041,0.088,0.038,0.525,0.475,0.400,0.225,0.144
'0:00.390',0.119,0.149,0.030,-0.134,0.044,0.089,0.038,0.541,0.494,0.406,0.234,0.153
'0:00.391',0.122,0.153,0.031,-0.137,0.045,0.092,0.038,0.556,0.506,0.425,0.238,0.163
'0:00.392',0.122,0.157,0.036,-0.139,0.043,0.096,0.038,0.566,0.519,0.441,0.250,0.163
'0:00.393',0.125,0.166,0.041,-0.145,0.042,0.103,0.038,0.581,0.538,0.456,0.256,0.169
'0:00.394',0.128,0.172,0.044,-0.150,0.042,0.108,0.034,0.594,0.547,0.466,0.266,0.172
'0:00.395',0.131,0.181,0.050,-0.156,0.041,0.116,0.031,0.606,0.569,0.475,0.275,0.175
'0:00.396',0.133,0.187,0.054,-0.160,0.039,0.121,0.034,0.628,0.581,0.487,0.281,0.184
'0:00.397',0.137,0.191,0.053,-0.164,0.042,0.122,0.038,0.644,0.594,0.500,0.294,0.187
'0:00.398',0.139,0.196,0.056,-0.168,0.041,0.126,0.038,0.659,0.606,0.519,0.303,0.200
'0:00.399',0.141,0.200,0.059,-0.170,0.041,0.129,0.038,0.675,0.625,0.531,0.312,0.200
'0:00.400',0.146,0.203,0.058,-0.174,0.044,0.130,0.038,0.688,0.637,0.550,0.325,0.206
'0:00.401',0.144,0.206,0.063,-0.175,0.041,0.134,0.038,0.700,0.650,0.569,0.331,0.219
'0:00.402',0.146,0.212,0.067,-0.179,0.039,0.139,0.038,0.716,0.662,0.581,0.334,0.216
'0:00.403',0.150,0.219,0.069,-0.184,0.041,0.144,0.038,0.725,0.675,0.594,0.338,0.219
'0:00.404',0.158,0.225,0.068,-0.191,0.045,0.146,0.038,0.741,0.694,0.606,0.350,0.228
'0:00.405',0.162,0.231,0.069,-0.197,0.047,0.150,0.038,0.756,0.706,0.619,0.356,0.238
'0:00.406',0.166,0.239,0.074,-0.203,0.046,0.156,0.034,0.769,0.719,0.628,0.363,0.247
'0:00.407',0.169,0.241,0.072,-0.204,0.048,0.156,0.031,0.781,0.731,0.638,0.369,0.250
'0:00.408',0.171,0.242,0.072,-0.206,0.049,0.157,0.034,0.784,0.744,0.650,0.381,0.256
'0:00.409',0.172,0.247,0.075,-0.209,0.048,0.161,0.038,0.800,0.756,0.663,0.388,0.263
'0:00.410',0.175,0.254,0.079,-0.214,0.048,0.167,0.041,0.806,0.769,0.675,0.397,0.266
'0:00.411',0.178,0.259,0.081,-0.219,0.048,0.170,0.044,0.825,0.781,0.687,0.413,0.269
'0:00.412',0.186,0.270,0.084,-0.228,0.051,0.177,0.041,0.834,0.794,0.700,0.419,0.272
'0:00.413',0.194,0.281,0.088,-0.238,0.053,0.184,0.038,0.844,0.806,0.706,0.425,0.275
'0:00.414',0.196,0.283,0.088,-0.239,0.054,0.185,0.038,0.859,0.819,0.719,0.428,0.281
'0:00.415',0.197,0.291,0.094,-0.244,0.051,0.192,0.038,0.869,0.825,0.731,0.431,0.287
'0:00.416',0.197,0.292,0.096,-0.244,0.051,0.194,0.031,0.878,0.841,0.741,0.438,0.291
'0:00.417',0.197,0.297,0.100,-0.247,0.048,0.198,0.038,0.894,0.856,0.744,0.450,0.300
'0:00.418',0.196,0.299,0.103,-0.247,0.046,0.201,0.041,0.900,0.862,0.759,0.450,0.303
'0:00.419',0.197,0.303,0.106,-0.250,0.045,0.204,0.044,0.912,0.875,0.769,0.456,0.306
'0:00.420',0.196,0.306,0.111,-0.251,0.043,0.208,0.044,0.922,0.884,0.778,0.466,0.316
'0:00.421',0.197,0.312,0.116,-0.254,0.041,0.214,0.044,0.931,0.894,0.788,0.469,0.319
'0:00.422',0.203,0.319,0.116,-0.261,0.044,0.217,0.047,0.941,0.900,0.800,0.475,0.322
'0:00.423',0.209,0.328,0.119,-0.269,0.045,0.223,0.050,0.950,0.912,0.806,0.481,0.325
'0:00.424',0.209,0.331,0.122,-0.270,0.044,0.226,0.041,0.956,0.919,0.816,0.494,0.338
'0:00.425',0.216,0.337,0.122,-0.276,0.047,0.229,0.044,0.962,0.925,0.825,0.500,0.344
'0:00.426',0.216,0.344,0.128,-0.279,0.044,0.236,0.047,0.966,0.931,0.831,0.500,0.338
'0:00.427',0.216,0.347,0.131,-0.281,0.042,0.239,0.044,0.969,0.937,0.837,0.506,0.338
'0:00.428',0.217,0.344,0.126,-0.281,0.046,0.235,0.041,0.975,0.947,0.847,0.513,0.344
'0:00.429',0.216,0.347,0.131,-0.281,0.042,0.239,0.044,0.981,0.956,0.856,0.519,0.350
'0:00.430',0.216,0.351,0.136,-0.283,0.040,0.243,0.034,0.981,0.959,0.856,0.525,0.353
'0:00.431',0.216,0.356,0.141,-0.286,0.038,0.248,0.038,0.981,0.956,0.850,0.525,0.356
'0:00.432',0.219,0.362,0.144,-0.291,0.038,0.253,0.038,0.991,0.963,0.853,0.522,0.363
'0:00.433',0.219,0.362,0.144,-0.291,0.038,0.253,0.038,0.994,0.963,0.850,0.525,0.363
'0:00.434',0.220,0.364,0.144,-0.292,0.038,0.254,0.038,0.991,0.969,0.850,0.528,0.372
'0:00.435',0.219,0.369,0.150,-0.294,0.034,0.259,0.038,0.994,0.963,0.850,0.531,0.375
'0:00.436',0.219,0.367,0.149,-0.293,0.035,0.258,0.038,0.987,0.966,0.853,0.528,0.378
'0:00.437',0.216,0.369,0.153,-0.292,0.031,0.261,0.038,0.981,0.963,0.856,0.531,0.381
'0:00.438',0.216,0.375,0.159,-0.295,0.028,0.267,0.038,0.975,0.953,0.853,0.525,0.381
'0:00.439',0.212,0.378,0.166,-0.295,0.023,0.272,0.038,0.956,0.944,0.850,0.525,0.381
'0:00.440',0.212,0.377,0.164,-0.294,0.024,0.271,0.038,0.950,0.934,0.841,0.528,0.378
'0:00.441',0.212,0.378,0.166,-0.295,0.023,0.272,0.038,0.937,0.925,0.831,0.531,0.375
'0:00.442',0.206,0.377,0.171,-0.291,0.017,0.274,0.041,0.925,0.912,0.825,0.525,0.369
'0:00.443',0.197,0.369,0.172,-0.283,0.012,0.270,0.050,0.912,0.906,0.812,0.519,0.369
'0:00.444',0.196,0.371,0.175,-0.283,0.010,0.272,0.053,0.900,0.894,0.797,0.516,0.369
'0:00.445',0.191,0.369,0.178,-0.279,0.006,0.273,0.056,0.887,0.881,0.781,0.506,0.363
'0:00.446',0.186,0.366,0.180,-0.276,0.002,0.272,0.053,0.869,0.862,0.772,0.503,0.359
'0:00.447',0.181,0.362,0.181,-0.272,0.000,0.272,0.050,0.850,0.844,0.756,0.494,0.350
'0:00.448',0.181,0.362,0.181,-0.272,0.000,0.272,0.056,0.828,0.819,0.731,0.488,0.341
'0:00.449',0.181,0.362,0.181,-0.272,0.000,0.272,0.056,0.806,0.794,0.712,0.475,0.331
'0:00.450',0.176,0.361,0.184,-0.268,-0.004,0.272,0.053,0.778,0.772,0.691,0.459,0.328
'0:00.451',0.172,0.353,0.181,-0.262,-0.005,0.267,0.050,0.756,0.750,0.669,0.450,0.319
'0:00.452',0.164,0.342,0.178,-0.253,-0.007,0.260,0.056,0.731,0.731,0.656,0.444,0.312
'0:00.453',0.156,0.334,0.178,-0.245,-0.011,0.256,0.056,0.713,0.706,0.631,0.425,0.306
'0:00.454',0.149,0.328,0.179,-0.238,-0.016,0.254,0.056,0.694,0.681,0.612,0.413,0.300
'0:00.455',0.144,0.322,0.178,-0.233,-0.017,0.250,0.056,0.663,0.656,0.587,0.400,0.287
'0:00.456',0.137,0.314,0.176,-0.226,-0.019,0.245,0.056,0.641,0.631,0.562,0.384,0.278
'0:00.457',0.131,0.309,0.178,-0.220,-0.024,0.244,0.056,0.619,0.606,0.544,0.369,0.263
'0:00.458',0.125,0.300,0.175,-0.213,-0.025,0.238,0.063,0.594,0.584,0.519,0.353,0.250
'0:00.459',0.116,0.284,0.169,-0.200,-0.027,0.226,0.069,0.569,0.563,0.494,0.344,0.238
'0:00.460',0.106,0.267,0.161,-0.187,-0.027,0.214,0.066,0.544,0.534,0.475,0.322,0.234
'0:00.461',0.103,0.256,0.153,-0.179,-0.025,0.204,0.063,0.519,0.506,0.450,0.306,0.225
'0:00.462',0.097,0.250,0.153,-0.173,-0.028,0.201,0.066,0.491,0.481,0.428,0.294,0.216
'0:00.463',0.094,0.241,0.147,-0.167,-0.027,0.194,0.063,0.463,0.456,0.406,0.275,0.206
'0:00.464',0.083,0.230,0.147,-0.156,-0.032,0.188,0.066,0.444,0.434,0.384,0.266,0.197
'0:00.465',0.075,0.216,0.141,-0.145,-0.033,0.178,0.063,0.425,0.412,0.362,0.250,0.187
'0:00.466',0.075,0.206,0.131,-0.141,-0.028,0.169,0.063,0.397,0.384,0.334,0.234,0.175
'0:00.467',0.072,0.200,0.128,-0.136,-0.028,0.164,0.063,0.369,0.356,0.312,0.219,0.163
'0:00.468',0.067,0.187,0.120,-0.128,-0.026,0.154,0.063,0.350,0.331,0.294,0.209,0.150
'0:00.469',0.059,0.172,0.113,-0.116,-0.027,0.142,0.063,0.325,0.313,0.269,0.194,0.144
'0:00.470',0.054,0.161,0.107,-0.108,-0.026,0.134,0.063,0.306,0.291,0.250,0.181,0.134
'0:00.471',0.050,0.150,0.100,-0.100,-0.025,0.125,0.063,0.288,0.275,0.231,0.169,0.131
'0:00.472',0.044,0.145,0.101,-0.094,-0.029,0.123,0.059,0.266,0.250,0.209,0.156,0.116
'0:00.473',0.041,0.137,0.097,-0.089,-0.028,0.117,0.056,0.250,0.231,0.194,0.144,0.106
'0:00.474',0.036,0.128,0.093,-0.082,-0.029,0.110,0.056,0.225,0.216,0.178,0.131,0.103
'0:00.475',0.031,0.119,0.088,-0.075,-0.028,0.103,0.056,0.206,0.200,0.156,0.119,0.094
'0:00.476',0.028,0.107,0.079,-0.067,-0.026,0.093,0.050,0.188,0.175,0.141,0.106,0.078
'0:00.477',0.025,0.100,0.075,-0.063,-0.025,0.088,0.050,0.169,0.162,0.125,0.094,0.069
'0:00.478',0.022,0.091,0.069,-0.056,-0.024,0.079,0.050,0.153,0.141,0.103,0.081,0.056
'0:00.479',0.019,0.081,0.063,-0.050,-0.022,0.072,0.050,0.131,0.125,0.087,0.075,0.050
'0:00.480',0.016,0.072,0.056,-0.044,-0.021,0.064,0.050,0.122,0.103,0.075,0.063,0.044
'0:00.481',0.016,0.062,0.047,-0.039,-0.016,0.054,0.050,0.106,0.088,0.062,0.056,0.038
'0:00.482',0.008,0.050,0.042,-0.029,-0.017,0.046,0.053,0.091,0.081,0.047,0.044,0.031
'0:00.483',0.003,0.041,0.038,-0.022,-0.017,0.039,0.050,0.075,0.069,0.038,0.038,0.031
'0:00.484',0.002,0.034,0.033,-0.018,-0.016,0.033,0.053,0.056,0.053,0.025,0.025,0.028
'0:00.485',-0.003,0.031,0.034,-0.014,-0.019,0.033,0.056,0.044,0.038,0.013,0.019,0.019
'0:00.486',-0.009,0.028,0.038,-0.009,-0.024,0.033,0.053,0.034,0.019,-0.003,0.006,0.013
'0:00.487',-0.009,0.022,0.031,-0.006,-0.021,0.026,0.050,0.025,0.006,-0.019,0.000,0.006
'0:00.488',-0.014,0.016,0.030,-0.001,-0.022,0.023,0.047,0.012,0.000,-0.025,-0.006,-0.003
'0:00.489',-0.012,0.012,0.025,0.000,-0.019,0.019,0.038,0.000,-0.013,-0.038,-0.012,-0.012
'0:00.490',-0.011,0.009,0.021,0.001,-0.016,0.015,0.044,-0.006,-0.022,-0.047,-0.025,-0.019
'0:00.491',-0.012,0.000,0.013,0.006,-0.012,0.006,0.044,-0.019,-0.031,-0.050,-0.031,-0.025
'0:00.492',-0.014,-0.006,0.008,0.010,-0.011,0.001,0.044,-0.028,-0.038,-0.053,-0.034,-0.022
'0:00.493',-0.019,-0.016,0.003,0.017,-0.011,-0.006,0.044,-0.031,-0.044,-0.056,-0.031,-0.025
'0:00.494',-0.022,-0.026,-0.004,0.024,-0.009,-0.016,0.044,-0.044,-0.053,-0.069,-0.037,-0.031
'0:00.495',-0.025,-0.028,-0.003,0.027,-0.011,-0.016,0.044,-0.050,-0.056,-0.075,-0.044,-0.031
'0:00.496',-0.025,-0.028,-0.003,0.027,-0.011,-0.016,0.041,-0.056,-0.063,-0.081,-0.053,-0.041
'0:00.497',-0.025,-0.031,-0.006,0.028,-0.009,-0.019,0.038,-0.063,-0.075,-0.087,-0.062,-0.044
'0:00.498',-0.031,-0.038,-0.006,0.034,-0.012,-0.022,0.044,-0.066,-0.081,-0.091,-0.066,-0.044
'0:00.499',-0.034,-0.044,-0.009,0.039,-0.012,-0.027,0.044,-0.069,-0.088,-0.094,-0.062,-0.044
'0:00.500',-0.034,-0.049,-0.014,0.042,-0.010,-0.032,0.041,-0.078,-0.097,-0.103,-0.069,-0.050
'0:00.501',-0.034,-0.047,-0.013,0.041,-0.011,-0.030,0.038,-0.088,-0.100,-0.112,-0.069,-0.056
'0:00.502',-0.034,-0.049,-0.014,0.042,-0.010,-0.032,0.034,-0.094,-0.109,-0.116,-0.075,-0.059
'0:00.503',-0.034,-0.050,-0.016,0.043,-0.009,-0.033,0.031,-0.100,-0.106,-0.119,-0.081,-0.056
'0:00.504',-0.037,-0.054,-0.017,0.046,-0.011,-0.036,0.025,-0.100,-0.116,-0.122,-0.081,-0.062
'0:00.505',-0.037,-0.059,-0.022,0.049,-0.008,-0.041,0.025,-0.106,-0.125,-0.131,-0.087,-0.062
'0:00.506',-0.037,-0.058,-0.021,0.048,-0.009,-0.039,0.025,-0.113,-0.125,-0.131,-0.087,-0.062
'0:00.507',-0.037,-0.063,-0.025,0.050,-0.006,-0.044,0.025,-0.113,-0.131,-0.138,-0.087,-0.062
'0:00.508',-0.041,-0.063,-0.022,0.052,-0.009,-0.042,0.025,-0.116,-0.134,-0.141,-0.091,-0.062
'0:00.509',-0.041,-0.066,-0.025,0.053,-0.008,-0.046,0.025,-0.113,-0.137,-0.138,-0.087,-0.062
'0:00.510',-0.045,-0.069,-0.024,0.057,-0.011,-0.046,0.025,-0.122,-0.137,-0.147,-0.097,-0.069
'0:00.511',-0.047,-0.072,-0.025,0.059,-0.011,-0.049,0.025,-0.131,-0.144,-0.150,-0.100,-0.075
'0:00.512',-0.047,-0.075,-0.028,0.061,-0.009,-0.052,0.022,-0.134,-0.147,-0.150,-0.103,-0.078
'0:00.513',-0.047,-0.075,-0.028,0.061,-0.009,-0.052,0.019,-0.138,-0.150,-0.156,-0.106,-0.087
'0:00.514',-0.047,-0.074,-0.027,0.061,-0.010,-0.051,0.019,-0.144,-0.156,-0.156,-0.106,-0.078
'0:00.515',-0.047,-0.075,-0.028,0.061,-0.009,-0.052,0.019,-0.144,-0.156,-0.163,-0.112,-0.081
'0:00.516',-0.046,-0.074,-0.028,0.060,-0.009,-0.051,0.022,-0.141,-0.162,-0.163,-0.119,-0.084
'0:00.517',-0.044,-0.072,-0.028,0.058,-0.008,-0.050,0.025,-0.138,-0.162,-0.163,-0.119,-0.087
'0:00.518',-0.042,-0.075,-0.033,0.059,-0.005,-0.054,0.028,-0.144,-0.159,-0.169,-0.119,-0.087
'0:00.519',-0.041,-0.075,-0.034,0.058,-0.003,-0.055,0.025,-0.144,-0.162,-0.169,-0.119,-0.087
'0:00.520',-0.045,-0.081,-0.036,0.063,-0.004,-0.059,0.025,-0.141,-0.162,-0.169,-0.112,-0.091
'0:00.521',-0.050,-0.088,-0.038,0.069,-0.006,-0.062,0.025,-0.144,-0.162,-0.169,-0.112,-0.087
'0:00.522',-0.050,-0.091,-0.041,0.071,-0.005,-0.066,0.025,-0.144,-0.166,-0.172,-0.116,-0.087
'0:00.523',-0.050,-0.091,-0.041,0.071,-0.005,-0.066,0.025,-0.144,-0.162,-0.169,-0.119,-0.087
'0:00.524',-0.053,-0.093,-0.039,0.073,-0.007,-0.066,0.022,-0.147,-0.166,-0.169,-0.112,-0.084
'0:00.525',-0.053,-0.094,-0.041,0.074,-0.006,-0.067,0.019,-0.156,-0.169,-0.169,-0.119,-0.081
'0:00.526',-0.055,-0.091,-0.036,0.073,-0.010,-0.063,0.019,-0.156,-0.172,-0.172,-0.122,-0.084
'0:00.527',-0.053,-0.094,-0.041,0.074,-0.006,-0.067,0.019,-0.156,-0.175,-0.175,-0.125,-0.087
'0:00.528',-0.058,-0.094,-0.036,0.076,-0.011,-0.065,0.019,-0.156,-0.172,-0.175,-0.125,-0.087
'0:00.529',-0.056,-0.094,-0.038,0.075,-0.009,-0.066,0.019,-0.156,-0.175,-0.175,-0.125,-0.087
'0:00.530',-0.052,-0.097,-0.045,0.074,-0.004,-0.071,0.019,-0.156,-0.178,-0.175,-0.122,-0.087
'0:00.531',-0.047,-0.097,-0.050,0.072,0.001,-0.074,0.019,-0.163,-0.181,-0.181,-0.119,-0.087
'0:00.532',-0.047,-0.094,-0.047,0.071,0.000,-0.071,0.009,-0.169,-0.194,-0.178,-0.128,-0.094
'0:00.533',-0.047,-0.094,-0.047,0.071,0.000,-0.071,0.006,-0.163,-0.194,-0.181,-0.131,-0.094
'0:00.534',-0.046,-0.093,-0.047,0.069,0.001,-0.070,0.009,-0.163,-0.187,-0.184,-0.128,-0.084
'0:00.535',-0.047,-0.094,-0.047,0.071,0.000,-0.071,0.006,-0.169,-0.181,-0.181,-0.125,-0.081
'0:00.536',-0.048,-0.097,-0.049,0.072,0.000,-0.073,0.009,-0.166,-0.184,-0.178,-0.116,-0.091
'0:00.537',-0.047,-0.094,-0.047,0.071,0.000,-0.071,0.013,-0.169,-0.187,-0.175,-0.119,-0.094
'0:00.538',-0.048,-0.095,-0.047,0.072,-0.001,-0.071,0.013,-0.175,-0.187,-0.178,-0.119,-0.094
'0:00.539',-0.050,-0.097,-0.047,0.074,-0.002,-0.072,0.006,-0.175,-0.187,-0.175,-0.119,-0.094
'0:00.540',-0.050,-0.097,-0.047,0.074,-0.002,-0.072,0.006,-0.175,-0.187,-0.178,-0.119,-0.097
'0:00.541',-0.050,-0.100,-0.050,0.075,0.000,-0.075,0.006,-0.175,-0.187,-0.181,-0.119,-0.100
'0:00.542',-0.050,-0.097,-0.047,0.074,-0.002,-0.072,0.009,-0.172,-0.184,-0.175,-0.119,-0.100
'0:00.543',-0.047,-0.094,-0.047,0.071,0.000,-0.071,0.013,-0.169,-0.181,-0.175,-0.119,-0.094
'0:00.544',-0.045,-0.098,-0.053,0.072,0.004,-0.076,0.019,-0.169,-0.184,-0.181,-0.119,-0.091
'0:00.545',-0.047,-0.097,-0.050,0.072,0.001,-0.074,0.019,-0.169,-0.181,-0.181,-0.119,-0.087
'0:00.546',-0.053,-0.100,-0.047,0.077,-0.003,-0.074,0.022,-0.169,-0.184,-0.181,-0.122,-0.091
'0:00.547',-0.053,-0.103,-0.050,0.078,-0.002,-0.077,0.019,-0.169,-0.187,-0.181,-0.125,-0.087
'0:00.548',-0.053,-0.102,-0.049,0.077,-0.002,-0.076,0.013,-0.169,-0.187,-0.181,-0.125,-0.087
'0:00.549',-0.053,-0.103,-0.050,0.078,-0.002,-0.077,0.013,-0.169,-0.187,-0.181,-0.125,-0.087
'0:00.550',-0.056,-0.104,-0.048,0.081,-0.004,-0.076,0.013,-0.169,-0.187,-0.181,-0.125,-0.087
'0:00.551',-0.056,-0.106,-0.050,0.081,-0.003,-0.078,0.013,-0.175,-0.187,-0.181,-0.125,-0.087
'0:00.552',-0.047,-0.102,-0.055,0.074,0.004,-0.079,0.016,-0.178,-0.191,-0.181,-0.125,-0.091
'0:00.553',-0.044,-0.097,-0.053,0.071,0.004,-0.075,0.019,-0.181,-0.194,-0.181,-0.125,-0.094
'0:00.554',-0.047,-0.097,-0.050,0.072,0.001,-0.074,0.022,-0.175,-0.191,-0.181,-0.125,-0.087
'0:00.555',-0.044,-0.094,-0.050,0.069,0.003,-0.072,0.025,-0.175,-0.187,-0.181,-0.125,-0.094
'0:00.556',-0.047,-0.095,-0.048,0.071,0.001,-0.072,0.016,-0.175,-0.187,-0.181,-0.125,-0.094
'0:00.557',-0.050,-0.097,-0.047,0.074,-0.002,-0.072,0.013,-0.175,-0.187,-0.181,-0.125,-0.094
'0:00.558',-0.051,-0.098,-0.047,0.075,-0.002,-0.072,0.013,-0.172,-0.187,-0.184,-0.125,-0.094
'0:00.559',-0.053,-0.100,-0.047,0.077,-0.003,-0.074,0.013,-0.175,-0.187,-0.188,-0.125,-0.094
'0:00.560',-0.053,-0.100,-0.047,0.077,-0.003,-0.074,0.009,-0.175,-0.191,-0.188,-0.128,-0.094
'0:00.561',-0.053,-0.100,-0.047,0.077,-0.003,-0.074,0.006,-0.175,-0.194,-0.188,-0.131,-0.094
'0:00.562',-0.053,-0.099,-0.046,0.076,-0.004,-0.072,0.016,-0.172,-0.197,-0.191,-0.131,-0.097
'0:00.563',-0.053,-0.100,-0.047,0.077,-0.003,-0.074,0.019,-0.175,-0.200,-0.194,-0.131,-0.100
'0:00.564',-0.053,-0.100,-0.047,0.077,-0.003,-0.074,0.019,-0.172,-0.197,-0.194,-0.125,-0.100
'0:00.565',-0.053,-0.100,-0.047,0.077,-0.003,-0.074,0.013,-0.169,-0.194,-0.194,-0.131,-0.100
'0:00.566',-0.053,-0.101,-0.048,0.077,-0.002,-0.075,0.019,-0.169,-0.187,-0.194,-0.131,-0.100
'0:00.567',-0.050,-0.100,-0.050,0.075,0.000,-0.075,0.019,-0.169,-0.194,-0.194,-0.131,-0.100
'0:00.568',-0.052,-0.097,-0.045,0.074,-0.004,-0.071,0.019,-0.172,-0.191,-0.194,-0.128,-0.100
'0:00.569',-0.044,-0.094,-0.050,0.069,0.003,-0.072,0.019,-0.175,-0.187,-0.194,-0.125,-0.100
'0:00.570',-0.048,-0.095,-0.047,0.072,-0.001,-0.071,0.019,-0.175,-0.191,-0.194,-0.125,-0.100
'0:00.571',-0.047,-0.097,-0.050,0.072,0.001,-0.074,0.019,-0.175,-0.194,-0.194,-0.125,-0.100
'0:00.572',-0.050,-0.097,-0.047,0.074,-0.002,-0.072,0.016,-0.169,-0.187,-0.191,-0.125,-0.100
'0:00.573',-0.050,-0.097,-0.047,0.074,-0.002,-0.072,0.006,-0.169,-0.187,-0.188,-0.125,-0.100
'0:00.574',-0.051,-0.100,-0.049,0.076,-0.001,-0.074,0.009,-0.172,-0.184,-0.188,-0.125,-0.100
'0:00.575',-0.050,-0.100,-0.050,0.075,0.000,-0.075,0.006,-0.169,-0.187,-0.188,-0.125,-0.100
'0:00.576',-0.050,-0.101,-0.051,0.076,0.001,-0.076,0.006,-0.166,-0.191,-0.188,-0.125,-0.100
'0:00.577',-0.050,-0.100,-0.050,0.075,0.000,-0.075,0.006,-0.163,-0.194,-0.188,-0.125,-0.100
'0:00.578',-0.051,-0.101,-0.050,0.076,-0.001,-0.076,0.013,-0.166,-0.184,-0.184,-0.122,-0.100
'0:00.579',-0.053,-0.103,-0.050,0.078,-0.002,-0.077,0.019,-0.169,-0.187,-0.181,-0.119,-0.100
'0:00.580',-0.052,-0.103,-0.051,0.077,-0.001,-0.077,0.019,-0.166,-0.187,-0.184,-0.119,-0.100
'0:00.581',-0.053,-0.103,-0.050,0.078,-0.002,-0.077,0.019,-0.163,-0.187,-0.188,-0.119,-0.100
'0:00.582',-0.054,-0.105,-0.051,0.080,-0.002,-0.078,0.022,-0.166,-0.187,-0.188,-0.122,-0.100
'0:00.583',-0.056,-0.103,-0.047,0.080,-0.005,-0.075,0.025,-0.169,-0.187,-0.188,-0.125,-0.100
'0:00.584',-0.053,-0.104,-0.051,0.079,-0.001,-0.078,0.025,-0.166,-0.187,-0.188,-0.125,-0.103
'0:00.585',-0.053,-0.103,-0.050,0.078,-0.002,-0.077,0.025,-0.163,-0.187,-0.188,-0.125,-0.100
'0:00.586',-0.050,-0.103,-0.053,0.077,0.001,-0.078,0.022,-0.163,-0.194,-0.191,-0.122,-0.103
'0:00.587',-0.047,-0.103,-0.056,0.075,0.004,-0.080,0.019,-0.163,-0.200,-0.194,-0.119,-0.094
'0:00.588',-0.047,-0.103,-0.056,0.075,0.004,-0.080,0.022,-0.159,-0.191,-0.197,-0.122,-0.100
'0:00.589',-0.047,-0.100,-0.053,0.074,0.003,-0.077,0.019,-0.156,-0.187,-0.200,-0.125,-0.100
'0:00.590',-0.047,-0.103,-0.056,0.075,0.004,-0.080,0.025,-0.159,-0.187,-0.191,-0.119,-0.100
'0:00.591',-0.047,-0.103,-0.056,0.075,0.004,-0.080,0.025,-0.163,-0.187,-0.194,-0.119,-0.100
'0:00.592',-0.047,-0.103,-0.056,0.075,0.004,-0.080,0.022,-0.163,-0.191,-0.191,-0.122,-0.100
'0:00.593',-0.047,-0.103,-0.056,0.075,0.004,-0.080,0.019,-0.163,-0.187,-0.188,-0.119,-0.100
'0:00.594',-0.044,-0.100,-0.056,0.072,0.006,-0.078,0.019,-0.163,-0.187,-0.191,-0.119,-0.100
'0:00.595',-0.047,-0.097,-0.050,0.072,0.001,-0.074,0.019,-0.156,-0.181,-0.194,-0.119,-0.100
'0:00.596',-0.050,-0.095,-0.045,0.072,-0.002,-0.070,0.019,-0.159,-0.178,-0.184,-0.116,-0.097
'0:00.597',-0.053,-0.100,-0.047,0.077,-0.003,-0.074,0.019,-0.163,-0.175,-0.181,-0.119,-0.094
'0:00.598',-0.054,-0.101,-0.047,0.078,-0.004,-0.074,0.016,-0.163,-0.175,-0.191,-0.119,-0.097
'0:00.599',-0.053,-0.100,-0.047,0.077,-0.003,-0.074,0.013,-0.163,-0.175,-0.188,-0.125,-0.100
'0:00.600',-0.055,-0.104,-0.049,0.080,-0.003,-0.077,0.013,-0.159,-0.178,-0.188,-0.122,-0.103
'0:00.601',-0.053,-0.103,-0.050,0.078,-0.002,-0.077,0.013,-0.163,-0.181,-0.188,-0.119,-0.106
'0:00.602',-0.049,-0.097,-0.048,0.073,-0.001,-0.072,0.013,-0.166,-0.181,-0.194,-0.119,-0.103
'0:00.603',-0.047,-0.094,-0.047,0.071,0.000,-0.071,0.013,-0.169,-0.181,-0.194,-0.119,-0.100
'0:00.604',-0.050,-0.093,-0.043,0.071,-0.004,-0.067,0.013,-0.163,-0.181,-0.188,-0.122,-0.100
'0:00.605',-0.050,-0.094,-0.044,0.072,-0.003,-0.069,0.013,-0.163,-0.181,-0.188,-0.125,-0.100
'0:00.606',-0.050,-0.095,-0.045,0.072,-0.002,-0.070,0.013,-0.163,-0.184,-0.188,-0.119,-0.097
'0:00.607',-0.050,-0.097,-0.047,0.074,-0.002,-0.072,0.013,-0.163,-0.187,-0.188,-0.119,-0.100
'0:00.608',-0.051,-0.100,-0.049,0.076,-0.001,-0.074,0.013,-0.166,-0.187,-0.188,-0.125,-0.100
'0:00.609',-0.053,-0.103,-0.050,0.078,-0.002,-0.077,0.013,-0.169,-0.187,-0.188,-0.125,-0.100
'0:00.610',-0.053,-0.102,-0.049,0.077,-0.002,-0.076,0.016,-0.166,-0.184,-0.188,-0.122,-0.103
'0:00.611',-0.053,-0.100,-0.047,0.077,-0.003,-0.074,0.019,-0.163,-0.181,-0.188,-0.119,-0.100
'0:00.612',-0.049,-0.094,-0.045,0.071,-0.002,-0.069,0.019,-0.163,-0.184,-0.188,-0.122,-0.100
'0:00.613',-0.050,-0.094,-0.044,0.072,-0.003,-0.069,0.019,-0.163,-0.187,-0.188,-0.125,-0.100
'0:00.614',-0.050,-0.093,-0.043,0.071,-0.004,-0.067,0.019,-0.166,-0.187,-0.188,-0.125,-0.100
'0:00.615',-0.050,-0.091,-0.041,0.071,-0.005,-0.066,0.019,-0.169,-0.187,-0.194,-0.125,-0.094
'0:00.616',-0.047,-0.089,-0.042,0.068,-0.002,-0.066,0.019,-0.163,-0.187,-0.194,-0.125,-0.100
'0:00.617',-0.044,-0.091,-0.047,0.067,0.001,-0.069,0.019,-0.169,-0.187,-0.194,-0.125,-0.100
'0:00.618',-0.042,-0.088,-0.046,0.065,0.002,-0.067,0.028,-0.166,-0.187,-0.197,-0.128,-0.100
'0:00.619',-0.044,-0.091,-0.047,0.067,0.001,-0.069,0.025,-0.175,-0.187,-0.194,-0.131,-0.100
'0:00.620',-0.044,-0.091,-0.047,0.067,0.001,-0.069,0.025,-0.175,-0.187,-0.194,-0.131,-0.100
'0:00.621',-0.047,-0.091,-0.044,0.069,-0.002,-0.067,0.025,-0.175,-0.187,-0.194,-0.131,-0.100
'0:00.622',-0.046,-0.089,-0.044,0.067,-0.001,-0.067,0.022,-0.166,-0.184,-0.197,-0.134,-0.091
'0:00.623',-0.044,-0.088,-0.044,0.066,0.000,-0.066,0.019,-0.169,-0.181,-0.200,-0.137,-0.094
'0:00.624',-0.044,-0.088,-0.044,0.066,0.000,-0.066,0.019,-0.169,-0.184,-0.197,-0.128,-0.087
'0:00.625',-0.044,-0.088,-0.044,0.066,0.000,-0.066,0.019,-0.169,-0.187,-0.194,-0.131,-0.087
'0:00.626',-0.045,-0.089,-0.044,0.067,-0.001,-0.066,0.019,-0.166,-0.187,-0.194,-0.131,-0.094
'0:00.627',-0.047,-0.094,-0.047,0.071,0.000,-0.071,0.019,-0.163,-0.187,-0.194,-0.131,-0.094
'0:00.628',-0.045,-0.088,-0.043,0.066,-0.001,-0.065,0.019,-0.163,-0.187,-0.191,-0.128,-0.087
'0:00.629',-0.047,-0.091,-0.044,0.069,-0.002,-0.067,0.019,-0.163,-0.187,-0.188,-0.125,-0.087
'0:00.630',-0.044,-0.088,-0.044,0.066,0.000,-0.066,0.019,-0.159,-0.184,-0.194,-0.125,-0.087
'0:00.631',-0.047,-0.088,-0.041,0.067,-0.003,-0.064,0.019,-0.163,-0.187,-0.194,-0.125,-0.087
'0:00.632',-0.047,-0.091,-0.044,0.069,-0.002,-0.067,0.016,-0.163,-0.191,-0.197,-0.128,-0.091
'0:00.633',-0.047,-0.091,-0.044,0.069,-0.002,-0.067,0.013,-0.156,-0.187,-0.194,-0.131,-0.094
'0:00.634',-0.049,-0.089,-0.041,0.069,-0.004,-0.065,0.019,-0.159,-0.187,-0.191,-0.122,-0.094
'0:00.635',-0.044,-0.088,-0.044,0.066,0.000,-0.066,0.013,-0.163,-0.194,-0.188,-0.125,-0.094
'0:00.636',-0.042,-0.088,-0.045,0.065,0.001,-0.066,0.013,-0.159,-0.197,-0.191,-0.125,-0.094
'0:00.637',-0.041,-0.088,-0.047,0.064,0.003,-0.067,0.013,-0.156,-0.200,-0.181,-0.125,-0.094
'0:00.638',-0.050,-0.088,-0.038,0.069,-0.006,-0.062,0.013,-0.163,-0.197,-0.188,-0.125,-0.091
'0:00.639',-0.056,-0.088,-0.031,0.072,-0.012,-0.059,0.013,-0.163,-0.194,-0.188,-0.125,-0.094
'0:00.640',-0.058,-0.091,-0.033,0.074,-0.012,-0.062,0.016,-0.163,-0.194,-0.188,-0.122,-0.097
'0:00.641',-0.059,-0.091,-0.031,0.075,-0.014,-0.061,0.019,-0.163,-0.194,-0.188,-0.119,-0.094
'0:00.642',-0.056,-0.092,-0.036,0.074,-0.011,-0.064,0.025,-0.163,-0.191,-0.184,-0.119,-0.094
'0:00.643',-0.053,-0.091,-0.038,0.072,-0.008,-0.064,0.019,-0.163,-0.187,-0.181,-0.119,-0.094
'0:00.644',-0.054,-0.089,-0.035,0.072,-0.010,-0.062,0.016,-0.163,-0.194,-0.181,-0.122,-0.097
'0:00.645',-0.053,-0.088,-0.034,0.071,-0.009,-0.061,0.013,-0.163,-0.187,-0.181,-0.125,-0.094
'0:00.646',-0.052,-0.086,-0.034,0.069,-0.009,-0.061,0.019,-0.163,-0.194,-0.188,-0.125,-0.094
'0:00.647',-0.050,-0.084,-0.034,0.067,-0.008,-0.059,0.013,-0.163,-0.194,-0.194,-0.125,-0.094
'0:00.648',-0.047,-0.084,-0.038,0.066,-0.005,-0.061,0.013,-0.172,-0.194,-0.194,-0.125,-0.097
'0:00.649',-0.044,-0.084,-0.041,0.064,-0.002,-0.062,0.013,-0.169,-0.194,-0.200,-0.131,-0.100
'0:00.650',-0.041,-0.086,-0.045,0.063,0.002,-0.066,0.013,-0.178,-0.191,-0.197,-0.131,-0.103
'0:00.651',-0.044,-0.088,-0.044,0.066,0.000,-0.066,0.013,-0.175,-0.194,-0.194,-0.131,-0.106
'0:00.652',-0.045,-0.088,-0.043,0.066,-0.001,-0.065,0.013,-0.178,-0.194,-0.194,-0.134,-0.103
'0:00.653',-0.047,-0.088,-0.041,0.067,-0.003,-0.064,0.013,-0.175,-0.194,-0.194,-0.137,-0.100
'0:00.654',-0.048,-0.088,-0.039,0.068,-0.004,-0.064,0.016,-0.178,-0.194,-0.197,-0.134,-0.097
'0:00.655',-0.050,-0.088,-0.038,0.069,-0.006,-0.062,0.019,-0.181,-0.194,-0.200,-0.131,-0.094
'0:00.656',-0.052,-0.089,-0.037,0.071,-0.007,-0.063,0.016,-0.181,-0.194,-0.197,-0.131,-0.094
'0:00.657',-0.050,-0.091,-0.041,0.071,-0.005,-0.066,0.013,-0.181,-0.194,-0.194,-0.125,-0.094
'0:00.658',-0.047,-0.089,-0.043,0.068,-0.002,-0.066,0.013,-0.181,-0.197,-0.191,-0.125,-0.097
'0:00.659',-0.050,-0.091,-0.041,0.071,-0.005,-0.066,0.013,-0.181,-0.200,-0.194,-0.131,-0.100
'0:00.660',-0.050,-0.092,-0.042,0.071,-0.004,-0.067,0.013,-0.178,-0.200,-0.194,-0.131,-0.100
'0:00.661',-0.050,-0.094,-0.044,0.072,-0.003,-0.069,0.013,-0.175,-0.200,-0.194,-0.131,-0.100
'0:00.662',-0.051,-0.095,-0.044,0.073,-0.004,-0.069,0.013,-0.172,-0.197,-0.197,-0.128,-0.100
'0:00.663',-0.050,-0.097,-0.047,0.074,-0.002,-0.072,0.006,-0.175,-0.200,-0.200,-0.125,-0.100
'0:00.664',-0.050,-0.091,-0.041,0.071,-0.005,-0.066,0.006,-0.175,-0.203,-0.200,-0.128,-0.100
'0:00.665',-0.050,-0.091,-0.041,0.071,-0.005,-0.066,0.006,-0.175,-0.206,-0.200,-0.131,-0.100
'0:00.666',-0.047,-0.095,-0.048,0.071,0.001,-0.072,0.013,-0.175,-0.206,-0.200,-0.134,-0.100
'0:00.667',-0.044,-0.094,-0.050,0.069,0.003,-0.072,0.006,-0.175,-0.206,-0.200,-0.144,-0.100
'0:00.668',-0.044,-0.094,-0.050,0.069,0.003,-0.072,0.006,-0.172,-0.206,-0.197,-0.137,-0.103
'0:00.669',-0.044,-0.094,-0.050,0.069,0.003,-0.072,0.006,-0.175,-0.213,-0.200,-0.144,-0.106
'0:00.670',-0.045,-0.093,-0.048,0.069,0.001,-0.070,0.013,-0.169,-0.206,-0.200,-0.137,-0.103
'0:00.671',-0.047,-0.091,-0.044,0.069,-0.002,-0.067,0.013,-0.169,-0.206,-0.200,-0.144,-0.100
'0:00.672',-0.047,-0.093,-0.046,0.070,-0.001,-0.069,0.006,-0.178,-0.213,-0.200,-0.141,-0.100
'0:00.673',-0.047,-0.091,-0.044,0.069,-0.002,-0.067,0.006,-0.181,-0.213,-0.200,-0.137,-0.100
'0:00.674',-0.047,-0.091,-0.044,0.069,-0.002,-0.067,0.003,-0.181,-0.209,-0.203,-0.137,-0.094
'0:00.675',-0.047,-0.091,-0.044,0.069,-0.002,-0.067,0.000,-0.181,-0.206,-0.206,-0.137,-0.094
'0:00.676',-0.048,-0.094,-0.046,0.071,-0.001,-0.070,0.006,-0.181,-0.206,-0.209,-0.137,-0.097
'0:00.677',-0.050,-0.097,-0.047,0.074,-0.002,-0.072,0.013,-0.181,-0.206,-0.212,-0.137,-0.100
'0:00.678',-0.048,-0.097,-0.049,0.072,0.000,-0.073,0.013,-0.178,-0.213,-0.206,-0.134,-0.097
'0:00.679',-0.053,-0.100,-0.047,0.077,-0.003,-0.074,0.019,-0.175,-0.213,-0.206,-0.137,-0.100
'0:00.680',-0.052,-0.099,-0.047,0.076,-0.002,-0.073,0.016,-0.181,-0.216,-0.206,-0.137,-0.103
'0:00.681',-0.050,-0.100,-0.050,0.075,0.000,-0.075,0.013,-0.181,-0.219,-0.206,-0.137,-0.100
'0:00.682',-0.049,-0.099,-0.050,0.074,0.001,-0.074,0.013,-0.184,-0.216,-0.206,-0.141,-0.103
'0:00.683',-0.050,-0.097,-0.047,0.074,-0.002,-0.072,0.013,-0.188,-0.219,-0.212,-0.144,-0.106
'0:00.684',-0.048,-0.094,-0.046,0.071,-0.001,-0.070,0.016,-0.188,-0.219,-0.216,-0.141,-0.106
'0:00.685',-0.050,-0.097,-0.047,0.074,-0.002,-0.072,0.013,-0.188,-0.219,-0.219,-0.137,-0.106
'0:00.686',-0.050,-0.097,-0.047,0.074,-0.002,-0.072,0.009,-0.197,-0.222,-0.219,-0.147,-0.106
'0:00.687',-0.056,-0.103,-0.047,0.080,-0.005,-0.075,0.006,-0.200,-0.225,-0.219,-0.144,-0.106
'0:00.688',-0.056,-0.102,-0.046,0.079,-0.006,-0.074,0.013,-0.194,-0.219,-0.219,-0.144,-0.103
'0:00.689',-0.053,-0.103,-0.050,0.078,-0.002,-0.077,0.013,-0.200,-0.219,-0.219,-0.144,-0.100
'0:00.690',-0.052,-0.103,-0.051,0.077,-0.001,-0.077,0.013,-0.197,-0.219,-0.216,-0.144,-0.103
'0:00.691',-0.050,-0.103,-0.053,0.077,0.001,-0.078,0.013,-0.194,-0.219,-0.212,-0.144,-0.106
'0:00.692',-0.050,-0.103,-0.053,0.077,0.001,-0.078,0.016,-0.191,-0.219,-0.212,-0.144,-0.109
'0:00.693',-0.050,-0.103,-0.053,0.077,0.001,-0.078,0.013,-0.188,-0.219,-0.212,-0.144,-0.112
'0:00.694',-0.051,-0.106,-0.055,0.079,0.002,-0.081,0.019,-0.194,-0.222,-0.212,-0.144,-0.112
'0:00.695',-0.053,-0.106,-0.053,0.080,0.000,-0.080,0.013,-0.194,-0.225,-0.219,-0.150,-0.112
'0:00.696',-0.050,-0.103,-0.053,0.077,0.001,-0.078,0.009,-0.197,-0.228,-0.222,-0.147,-0.116
'0:00.697',-0.050,-0.103,-0.053,0.077,0.001,-0.078,0.006,-0.200,-0.231,-0.225,-0.144,-0.112
'0:00.698',-0.052,-0.105,-0.053,0.079,0.001,-0.079,0.006,-0.200,-0.228,-0.225,-0.144,-0.112
'0:00.699',-0.050,-0.106,-0.056,0.078,0.003,-0.081,0.006,-0.200,-0.231,-0.225,-0.144,-0.112
'0:00.700',-0.050,-0.106,-0.056,0.078,0.003,-0.081,0.006,-0.200,-0.228,-0.225,-0.147,-0.116
'0:00.701',-0.047,-0.103,-0.056,0.075,0.004,-0.080,0.006,-0.206,-0.231,-0.225,-0.150,-0.119
'0:00.702',-0.046,-0.103,-0.058,0.074,0.006,-0.081,0.006,-0.206,-0.234,-0.228,-0.144,-0.116
'0:00.703',-0.047,-0.103,-0.056,0.075,0.004,-0.080,0.006,-0.206,-0.238,-0.225,-0.144,-0.112
'0:00.704',-0.048,-0.106,-0.058,0.077,0.005,-0.082,0.003,-0.203,-0.238,-0.228,-0.144,-0.109
'0:00.705',-0.050,-0.106,-0.056,0.078,0.003,-0.081,0.000,-0.200,-0.238,-0.225,-0.144,-0.106
'0:00.706',-0.050,-0.106,-0.056,0.078,0.003,-0.081,0.000,-0.206,-0.238,-0.225,-0.147,-0.116
'0:00.707',-0.050,-0.106,-0.056,0.078,0.003,-0.081,0.000,-0.200,-0.238,-0.225,-0.150,-0.112
'0:00.708',-0.050,-0.108,-0.058,0.079,0.004,-0.082,0.003,-0.206,-0.238,-0.225,-0.153,-0.112
'0:00.709',-0.050,-0.106,-0.056,0.078,0.003,-0.081,0.006,-0.206,-0.238,-0.225,-0.156,-0.112
'0:00.710',-0.050,-0.106,-0.056,0.078,0.003,-0.081,0.009,-0.209,-0.247,-0.225,-0.150,-0.116
'0:00.711',-0.050,-0.106,-0.056,0.078,0.003,-0.081,0.013,-0.213,-0.250,-0.225,-0.150,-0.112
'0:00.712',-0.051,-0.108,-0.057,0.080,0.002,-0.082,0.009,-0.203,-0.244,-0.225,-0.153,-0.112
'0:00.713',-0.053,-0.109,-0.056,0.081,0.001,-0.083,0.006,-0.206,-0.244,-0.225,-0.156,-0.112
'0:00.714',-0.053,-0.113,-0.059,0.083,0.003,-0.086,0.003,-0.209,-0.247,-0.225,-0.150,-0.109
'0:00.715',-0.053,-0.113,-0.059,0.083,0.003,-0.086,0.000,-0.213,-0.244,-0.231,-0.156,-0.119
'0:00.716',-0.056,-0.113,-0.056,0.084,0.000,-0.084,0.003,-0.213,-0.244,-0.234,-0.159,-0.119
'0:00.717',-0.053,-0.113,-0.059,0.083,0.003,-0.086,0.006,-0.213,-0.244,-0.237,-0.162,-0.119
'0:00.718',-0.056,-0.113,-0.056,0.084,0.000,-0.084,0.003,-0.213,-0.244,-0.237,-0.162,-0.116
'0:00.719',-0.056,-0.113,-0.056,0.084,0.000,-0.084,0.000,-0.213,-0.244,-0.237,-0.162,-0.112
'0:00.720',-0.050,-0.113,-0.063,0.081,0.006,-0.087,0.000,-0.216,-0.247,-0.234,-0.166,-0.112
'0:00.721',-0.050,-0.113,-0.063,0.081,0.006,-0.087,0.000,-0.213,-0.250,-0.231,-0.169,-0.112
'0:00.722',-0.050,-0.113,-0.063,0.081,0.006,-0.087,0.000,-0.213,-0.247,-0.231,-0.166,-0.112
'0:00.723',-0.050,-0.113,-0.063,0.081,0.006,-0.087,0.000,-0.213,-0.250,-0.231,-0.162,-0.112
'0:00.724',-0.046,-0.111,-0.066,0.079,0.010,-0.089,0.000,-0.213,-0.253,-0.234,-0.162,-0.112
'0:00.725',-0.047,-0.113,-0.066,0.080,0.009,-0.089,0.000,-0.213,-0.256,-0.237,-0.162,-0.112
'0:00.726',-0.047,-0.113,-0.066,0.080,0.009,-0.089,0.003,-0.213,-0.253,-0.234,-0.172,-0.109
'0:00.727',-0.047,-0.113,-0.066,0.080,0.009,-0.089,0.006,-0.219,-0.250,-0.231,-0.169,-0.106
'0:00.728',-0.050,-0.114,-0.064,0.082,0.007,-0.089,0.006,-0.219,-0.250,-0.237,-0.166,-0.112
'0:00.729',-0.050,-0.116,-0.066,0.083,0.007,-0.091,0.006,-0.219,-0.250,-0.231,-0.162,-0.112
'0:00.730',-0.046,-0.116,-0.070,0.081,0.012,-0.093,0.000,-0.219,-0.253,-0.241,-0.166,-0.106
'0:00.731',-0.047,-0.116,-0.069,0.081,0.011,-0.092,0.000,-0.219,-0.250,-0.244,-0.162,-0.112
'0:00.732',-0.046,-0.116,-0.070,0.081,0.012,-0.093,0.006,-0.219,-0.250,-0.247,-0.166,-0.116
'0:00.733',-0.044,-0.113,-0.069,0.078,0.012,-0.091,0.000,-0.219,-0.250,-0.250,-0.169,-0.119
'0:00.734',-0.045,-0.111,-0.066,0.078,0.010,-0.088,0.000,-0.219,-0.253,-0.250,-0.166,-0.119
'0:00.735',-0.050,-0.113,-0.063,0.081,0.006,-0.087,0.000,-0.219,-0.256,-0.250,-0.162,-0.119
'0:00.736',-0.050,-0.114,-0.064,0.082,0.007,-0.089,0.000,-0.219,-0.256,-0.250,-0.162,-0.119
'0:00.737',-0.050,-0.116,-0.066,0.083,0.007,-0.091,0.000,-0.219,-0.256,-0.256,-0.162,-0.119
'0:00.738',-0.049,-0.116,-0.067,0.082,0.009,-0.091,-0.003,-0.222,-0.256,-0.247,-0.162,-0.122
'0:00.739',-0.050,-0.119,-0.069,0.084,0.009,-0.094,-0.006,-0.219,-0.256,-0.244,-0.162,-0.119
'0:00.740',-0.058,-0.123,-0.066,0.091,0.004,-0.094,0.006,-0.219,-0.256,-0.250,-0.166,-0.116
'0:00.741',-0.059,-0.122,-0.063,0.091,0.001,-0.092,0.006,-0.219,-0.256,-0.250,-0.169,-0.119
'0:00.742',-0.055,-0.120,-0.065,0.087,0.005,-0.092,0.006,-0.222,-0.259,-0.250,-0.169,-0.119
'0:00.743',-0.056,-0.122,-0.066,0.089,0.004,-0.094,0.006,-0.225,-0.263,-0.250,-0.169,-0.119
'0:00.744',-0.053,-0.116,-0.063,0.084,0.004,-0.089,-0.003,-0.225,-0.259,-0.250,-0.172,-0.119
'0:00.745',-0.050,-0.113,-0.063,0.081,0.006,-0.087,0.000,-0.225,-0.263,-0.250,-0.175,-0.119
'0:00.746',-0.051,-0.116,-0.064,0.084,0.006,-0.090,0.000,-0.225,-0.263,-0.253,-0.175,-0.119
'0:00.747',-0.050,-0.116,-0.066,0.083,0.007,-0.091,0.000,-0.231,-0.263,-0.256,-0.175,-0.125
'0:00.748',-0.051,-0.120,-0.069,0.086,0.009,-0.094,0.000,-0.225,-0.269,-0.250,-0.172,-0.119
'0:00.749',-0.056,-0.122,-0.066,0.089,0.004,-0.094,0.000,-0.231,-0.263,-0.250,-0.169,-0.125
'0:00.750',-0.056,-0.118,-0.061,0.087,0.002,-0.089,0.000,-0.234,-0.263,-0.253,-0.166,-0.122
'0:00.751',-0.056,-0.119,-0.063,0.087,0.003,-0.091,0.000,-0.231,-0.263,-0.250,-0.162,-0.125
'0:00.752',-0.055,-0.123,-0.068,0.089,0.006,-0.096,0.000,-0.231,-0.266,-0.253,-0.172,-0.122
'0:00.753',-0.053,-0.122,-0.069,0.087,0.007,-0.096,0.000,-0.238,-0.269,-0.256,-0.175,-0.119
'0:00.754',-0.052,-0.122,-0.070,0.087,0.009,-0.096,0.000,-0.231,-0.272,-0.256,-0.178,-0.122
'0:00.755',-0.050,-0.122,-0.072,0.086,0.011,-0.097,0.000,-0.238,-0.275,-0.256,-0.181,-0.125
'0:00.756',-0.050,-0.121,-0.071,0.086,0.010,-0.096,0.000,-0.238,-0.269,-0.256,-0.175,-0.125
'0:00.757',-0.053,-0.122,-0.069,0.087,0.007,-0.096,0.000,-0.238,-0.263,-0.256,-0.175,-0.125
'0:00.758',-0.054,-0.123,-0.069,0.089,0.007,-0.096,0.000,-0.238,-0.263,-0.256,-0.175,-0.125
'0:00.759',-0.056,-0.122,-0.066,0.089,0.004,-0.094,0.000,-0.238,-0.263,-0.256,-0.175,-0.125
'0:00.760',-0.052,-0.122,-0.070,0.087,0.009,-0.096,0.000,-0.241,-0.263,-0.256,-0.181,-0.122
'0:00.761',-0.053,-0.122,-0.069,0.087,0.007,-0.096,0.000,-0.238,-0.263,-0.256,-0.175,-0.119
'0:00.762',-0.047,-0.122,-0.075,0.084,0.014,-0.099,0.000,-0.247,-0.263,-0.256,-0.181,-0.119
'0:00.763',-0.050,-0.125,-0.075,0.087,0.012,-0.100,0.000,-0.244,-0.263,-0.263,-0.181,-0.119
'0:00.764',-0.053,-0.126,-0.073,0.090,0.010,-0.100,0.000,-0.241,-0.263,-0.259,-0.178,-0.116
'0:00.765',-0.053,-0.128,-0.075,0.091,0.011,-0.102,0.006,-0.244,-0.263,-0.263,-0.169,-0.112
'0:00.766',-0.051,-0.128,-0.077,0.090,0.012,-0.102,0.003,-0.244,-0.266,-0.263,-0.172,-0.122
'0:00.767',-0.050,-0.128,-0.078,0.089,0.014,-0.103,0.006,-0.244,-0.269,-0.263,-0.175,-0.119
'0:00.768',-0.053,-0.128,-0.075,0.091,0.011,-0.102,0.006,-0.250,-0.269,-0.263,-0.178,-0.125
'0:00.769',-0.053,-0.128,-0.075,0.091,0.011,-0.102,0.006,-0.244,-0.269,-0.263,-0.181,-0.119
'0:00.770',-0.053,-0.127,-0.074,0.090,0.010,-0.101,0.003,-0.241,-0.269,-0.263,-0.181,-0.125
'0:00.771',-0.053,-0.128,-0.075,0.091,0.011,-0.102,0.000,-0.238,-0.269,-0.263,-0.181,-0.119
'0:00.772',-0.050,-0.127,-0.077,0.089,0.013,-0.102,0.000,-0.247,-0.263,-0.266,-0.178,-0.122
'0:00.773',-0.047,-0.122,-0.075,0.084,0.014,-0.099,0.000,-0.244,-0.269,-0.269,-0.175,-0.125
'0:00.774',-0.048,-0.122,-0.074,0.085,0.012,-0.098,0.000,-0.244,-0.266,-0.263,-0.175,-0.122
'0:00.775',-0.050,-0.122,-0.072,0.086,0.011,-0.097,0.000,-0.238,-0.263,-0.263,-0.175,-0.119
'0:00.776',-0.058,-0.126,-0.069,0.092,0.006,-0.097,0.000,-0.234,-0.259,-0.259,-0.172,-0.119
'0:00.777',-0.062,-0.128,-0.066,0.096,0.001,-0.097,0.000,-0.231,-0.256,-0.250,-0.169,-0.119
'0:00.778',-0.059,-0.127,-0.068,0.093,0.004,-0.097,0.000,-0.231,-0.256,-0.250,-0.172,-0.119
'0:00.779',-0.056,-0.125,-0.069,0.091,0.006,-0.097,0.000,-0.231,-0.256,-0.250,-0.175,-0.119
'0:00.780',-0.056,-0.123,-0.067,0.090,0.005,-0.095,-0.003,-0.234,-0.259,-0.256,-0.175,-0.119
'0:00.781',-0.056,-0.125,-0.069,0.091,0.006,-0.097,-0.006,-0.238,-0.256,-0.256,-0.175,-0.119
'0:00.782',-0.054,-0.125,-0.071,0.090,0.008,-0.098,-0.003,-0.238,-0.256,-0.259,-0.175,-0.119
'0:00.783',-0.056,-0.125,-0.069,0.091,0.006,-0.097,0.000,-0.238,-0.256,-0.263,-0.175,-0.119
'0:00.784',-0.056,-0.122,-0.066,0.089,0.004,-0.094,0.000,-0.238,-0.259,-0.259,-0.175,-0.119
'0:00.785',-0.053,-0.119,-0.066,0.086,0.006,-0.092,-0.006,-0.238,-0.263,-0.256,-0.181,-0.125
'0:00.786',-0.047,-0.119,-0.072,0.083,0.012,-0.096,-0.006,-0.241,-0.263,-0.256,-0.178,-0.122
'0:00.787',-0.047,-0.119,-0.072,0.083,0.012,-0.096,-0.006,-0.238,-0.263,-0.256,-0.181,-0.119
'0:00.788',-0.056,-0.120,-0.064,0.088,0.004,-0.092,-0.003,-0.234,-0.266,-0.259,-0.178,-0.122
'0:00.789',-0.056,-0.122,-0.066,0.089,0.004,-0.094,-0.006,-0.231,-0.269,-0.263,-0.175,-0.125
'0:00.790',-0.062,-0.126,-0.064,0.094,0.001,-0.095,-0.003,-0.234,-0.269,-0.263,-0.172,-0.122
'0:00.791',-0.062,-0.128,-0.066,0.096,0.001,-0.097,0.000,-0.238,-0.269,-0.263,-0.175,-0.119
'0:00.792',-0.062,-0.128,-0.066,0.096,0.001,-0.097,0.000,-0.228,-0.272,-0.259,-0.172,-0.119
'0:00.793',-0.062,-0.128,-0.066,0.096,0.001,-0.097,0.000,-0.231,-0.275,-0.256,-0.175,-0.119
'0:00.794',-0.061,-0.128,-0.067,0.095,0.002,-0.097,0.003,-0.231,-0.269,-0.266,-0.184,-0.119
'0:00.795',-0.062,-0.128,-0.066,0.096,0.001,-0.097,0.006,-0.231,-0.263,-0.263,-0.181,-0.119
'0:00.796',-0.059,-0.127,-0.068,0.093,0.004,-0.097,0.006,-0.234,-0.263,-0.263,-0.178,-0.119
'0:00.797',-0.053,-0.125,-0.072,0.089,0.009,-0.099,0.006,-0.238,-0.263,-0.263,-0.175,-0.119
'0:00.798',-0.053,-0.125,-0.072,0.089,0.009,-0.099,0.006,-0.234,-0.269,-0.263,-0.172,-0.116
'0:00.799',-0.056,-0.125,-0.069,0.091,0.006,-0.097,0.006,-0.238,-0.269,-0.263,-0.175,-0.112
'0:00.800',-0.053,-0.126,-0.073,0.090,0.010,-0.100,0.003,-0.241,-0.269,-0.263,-0.175,-0.112
'0:00.801',-0.053,-0.128,-0.075,0.091,0.011,-0.102,0.000,-0.244,-0.269,-0.263,-0.175,-0.112
'0:00.802',-0.055,-0.131,-0.076,0.093,0.011,-0.104,0.000,-0.241,-0.266,-0.263,-0.175,-0.116
'0:00.803',-0.053,-0.131,-0.078,0.092,0.012,-0.105,0.000,-0.244,-0.269,-0.269,-0.175,-0.119
'0:00.804',-0.054,-0.128,-0.074,0.091,0.009,-0.101,0.003,-0.241,-0.269,-0.269,-0.175,-0.109
'0:00.805',-0.056,-0.131,-0.075,0.094,0.009,-0.103,0.006,-0.238,-0.269,-0.263,-0.175,-0.106
'0:00.806',-0.058,-0.128,-0.071,0.093,0.006,-0.099,0.003,-0.238,-0.269,-0.259,-0.175,-0.112
'0:00.807',-0.059,-0.131,-0.072,0.096,0.006,-0.102,0.000,-0.238,-0.269,-0.256,-0.175,-0.112
'0:00.808',-0.059,-0.130,-0.071,0.095,0.006,-0.101,0.000,-0.244,-0.266,-0.253,-0.175,-0.116
'0:00.809',-0.056,-0.122,-0.066,0.089,0.004,-0.094,0.000,-0.244,-0.263,-0.250,-0.175,-0.119
'0:00.810',-0.055,-0.124,-0.069,0.089,0.007,-0.096,0.006,-0.241,-0.266,-0.259,-0.178,-0.119
'0:00.811',-0.053,-0.119,-0.066,0.086,0.006,-0.092,0.006,-0.238,-0.263,-0.263,-0.175,-0.119
'0:00.812',-0.058,-0.116,-0.058,0.087,0.000,-0.087,0.006,-0.238,-0.269,-0.259,-0.172,-0.119
'0:00.813',-0.056,-0.113,-0.056,0.084,0.000,-0.084,0.006,-0.238,-0.269,-0.263,-0.175,-0.119
'0:00.814',-0.052,-0.117,-0.065,0.084,0.006,-0.091,0.009,-0.244,-0.269,-0.266,-0.175,-0.119
'0:00.815',-0.050,-0.119,-0.069,0.084,0.009,-0.094,0.013,-0.244,-0.275,-0.263,-0.175,-0.125
'0:00.816',-0.054,-0.122,-0.068,0.088,0.006,-0.095,0.003,-0.241,-0.269,-0.259,-0.175,-0.125
'0:00.817',-0.056,-0.128,-0.072,0.092,0.007,-0.100,0.006,-0.238,-0.275,-0.263,-0.175,-0.125
'0:00.818',-0.058,-0.130,-0.072,0.094,0.007,-0.101,0.009,-0.238,-0.269,-0.266,-0.181,-0.125
'0:00.819',-0.053,-0.128,-0.075,0.091,0.011,-0.102,0.006,-0.244,-0.269,-0.269,-0.181,-0.125
'0:00.820',-0.053,-0.127,-0.074,0.090,0.010,-0.101,0.009,-0.241,-0.272,-0.269,-0.181,-0.125
'0:00.821',-0.050,-0.128,-0.078,0.089,0.014,-0.103,0.013,-0.250,-0.269,-0.269,-0.181,-0.125
'0:00.822',-0.050,-0.134,-0.084,0.092,0.017,-0.109,0.013,-0.241,-0.269,-0.269,-0.181,-0.122
'0:00.823',-0.047,-0.141,-0.094,0.094,0.023,-0.117,0.013,-0.244,-0.269,-0.269,-0.181,-0.119
'0:00.824',-0.046,-0.141,-0.095,0.093,0.024,-0.118,0.009,-0.244,-0.266,-0.269,-0.184,-0.122
'0:00.825',-0.044,-0.144,-0.100,0.094,0.028,-0.122,0.006,-0.244,-0.263,-0.269,-0.187,-0.131
'0:00.826',-0.041,-0.144,-0.103,0.092,0.031,-0.124,0.009,-0.244,-0.269,-0.266,-0.187,-0.125
'0:00.827',-0.041,-0.144,-0.103,0.092,0.031,-0.124,0.006,-0.238,-0.269,-0.263,-0.187,-0.125
'0:00.828',-0.039,-0.143,-0.104,0.091,0.032,-0.123,0.006,-0.238,-0.272,-0.269,-0.184,-0.131
'0:00.829',-0.037,-0.134,-0.097,0.086,0.029,-0.116,0.006,-0.238,-0.269,-0.269,-0.181,-0.125
'0:00.830',-0.033,-0.131,-0.098,0.082,0.032,-0.115,0.003,-0.231,-0.263,-0.269,-0.178,-0.125
'0:00.831',-0.031,-0.125,-0.094,0.078,0.031,-0.109,0.006,-0.231,-0.263,-0.263,-0.181,-0.125
'0:00.832',-0.028,-0.116,-0.088,0.072,0.029,-0.102,0.013,-0.225,-0.263,-0.259,-0.181,-0.119
'0:00.833',-0.028,-0.113,-0.084,0.071,0.028,-0.099,0.013,-0.225,-0.256,-0.250,-0.175,-0.119
'0:00.834',-0.031,-0.105,-0.074,0.068,0.021,-0.089,0.016,-0.219,-0.250,-0.247,-0.166,-0.109
'0:00.835',-0.034,-0.091,-0.056,0.062,0.011,-0.074,0.019,-0.213,-0.244,-0.237,-0.162,-0.106
'0:00.836',-0.033,-0.077,-0.044,0.055,0.005,-0.061,0.022,-0.206,-0.238,-0.234,-0.153,-0.103
'0:00.837',-0.025,-0.063,-0.038,0.044,0.006,-0.050,0.025,-0.200,-0.231,-0.231,-0.150,-0.100
'0:00.838',-0.025,-0.054,-0.029,0.040,0.002,-0.042,0.028,-0.194,-0.222,-0.225,-0.141,-0.087
'0:00.839',-0.019,-0.053,-0.034,0.036,0.007,-0.044,0.025,-0.194,-0.225,-0.219,-0.137,-0.087
'0:00.840',-0.016,-0.047,-0.031,0.031,0.007,-0.039,0.025,-0.188,-0.222,-0.216,-0.134,-0.087
'0:00.841',-0.016,-0.047,-0.031,0.031,0.007,-0.039,0.025,-0.188,-0.219,-0.212,-0.137,-0.087
'0:00.842',-0.014,-0.041,-0.026,0.027,0.006,-0.034,0.025,-0.191,-0.213,-0.212,-0.134,-0.091
'0:00.843',-0.009,-0.038,-0.028,0.024,0.009,-0.033,0.019,-0.194,-0.213,-0.212,-0.131,-0.094
'0:00.844',-0.009,-0.039,-0.030,0.024,0.010,-0.035,0.022,-0.184,-0.209,-0.209,-0.125,-0.091
'0:00.845',-0.006,-0.038,-0.031,0.022,0.012,-0.034,0.025,-0.188,-0.206,-0.212,-0.125,-0.094
'0:00.846',-0.003,-0.043,-0.039,0.023,0.018,-0.041,0.016,-0.191,-0.206,-0.209,-0.134,-0.091
'0:00.847',-0.003,-0.044,-0.041,0.024,0.019,-0.042,0.013,-0.194,-0.206,-0.206,-0.137,-0.087
'0:00.848',-0.006,-0.048,-0.042,0.027,0.017,-0.045,0.009,-0.191,-0.209,-0.212,-0.134,-0.091
'0:00.849',-0.009,-0.056,-0.047,0.033,0.019,-0.052,0.006,-0.194,-0.206,-0.212,-0.131,-0.087
'0:00.850',-0.008,-0.061,-0.053,0.034,0.022,-0.057,0.006,-0.194,-0.216,-0.209,-0.137,-0.084
'0:00.851',-0.006,-0.056,-0.050,0.031,0.022,-0.053,0.000,-0.194,-0.213,-0.206,-0.137,-0.087
'0:00.852',-0.003,-0.054,-0.051,0.029,0.024,-0.053,-0.003,-0.191,-0.216,-0.209,-0.134,-0.087
'0:00.853',-0.003,-0.047,-0.044,0.025,0.020,-0.046,-0.006,-0.194,-0.219,-0.206,-0.137,-0.087
'0:00.854',0.000,-0.041,-0.041,0.021,0.020,-0.041,-0.009,-0.188,-0.213,-0.209,-0.131,-0.084
'0:00.855',0.000,-0.041,-0.041,0.021,0.020,-0.041,-0.012,-0.188,-0.206,-0.206,-0.131,-0.087
'0:00.856',0.001,-0.039,-0.041,0.019,0.021,-0.040,-0.009,-0.191,-0.209,-0.206,-0.134,-0.087
'0:00.857',0.000,-0.031,-0.031,0.016,0.016,-0.031,0.000,-0.188,-0.213,-0.206,-0.131,-0.087
'0:00.858',-0.001,-0.029,-0.028,0.016,0.013,-0.029,0.003,-0.184,-0.203,-0.206,-0.128,-0.081
'0:00.859',-0.006,-0.022,-0.016,0.014,0.004,-0.019,0.013,-0.175,-0.194,-0.200,-0.119,-0.075
'0:00.860',-0.008,-0.022,-0.014,0.015,0.002,-0.018,0.009,-0.172,-0.197,-0.194,-0.112,-0.066
'0:00.861',-0.009,-0.013,-0.003,0.011,-0.003,-0.008,0.013,-0.169,-0.194,-0.194,-0.112,-0.062
'0:00.862',-0.008,-0.005,0.003,0.007,-0.006,-0.001,0.016,-0.166,-0.191,-0.194,-0.106,-0.062
'0:00.863',-0.009,-0.003,0.006,0.006,-0.008,0.001,0.019,-0.169,-0.194,-0.194,-0.106,-0.056
'0:00.864',-0.012,0.000,0.013,0.006,-0.012,0.006,0.009,-0.172,-0.197,-0.197,-0.116,-0.056
'0:00.865',-0.012,0.000,0.013,0.006,-0.012,0.006,0.006,-0.175,-0.194,-0.194,-0.112,-0.056
'0:00.866',-0.016,0.003,0.019,0.006,-0.017,0.011,0.016,-0.181,-0.194,-0.194,-0.109,-0.056
'0:00.867',-0.016,0.000,0.016,0.008,-0.016,0.008,0.019,-0.175,-0.194,-0.194,-0.106,-0.056
'0:00.868',-0.012,-0.006,0.006,0.009,-0.009,0.000,0.022,-0.178,-0.194,-0.194,-0.109,-0.050
'0:00.869',-0.012,-0.016,-0.003,0.014,-0.005,-0.009,0.025,-0.175,-0.200,-0.194,-0.112,-0.050
'0:00.870',-0.009,-0.021,-0.011,0.015,0.001,-0.016,0.016,-0.184,-0.200,-0.200,-0.112,-0.059
'0:00.871',-0.009,-0.031,-0.022,0.021,0.006,-0.027,0.013,-0.181,-0.200,-0.200,-0.112,-0.062
'0:00.872',-0.011,-0.039,-0.029,0.025,0.009,-0.034,0.013,-0.191,-0.200,-0.200,-0.119,-0.069
'0:00.873',-0.009,-0.044,-0.034,0.027,0.012,-0.039,0.013,-0.188,-0.200,-0.200,-0.119,-0.069
'0:00.874',-0.005,-0.046,-0.041,0.026,0.017,-0.043,0.006,-0.184,-0.200,-0.200,-0.119,-0.078
'0:00.875',-0.006,-0.047,-0.041,0.027,0.017,-0.044,0.006,-0.188,-0.206,-0.206,-0.125,-0.081
'0:00.876',-0.012,-0.058,-0.045,0.035,0.016,-0.051,0.006,-0.194,-0.213,-0.209,-0.122,-0.078
'0:00.877',-0.012,-0.063,-0.050,0.037,0.019,-0.056,0.006,-0.194,-0.213,-0.212,-0.125,-0.081
'0:00.878',-0.019,-0.069,-0.050,0.044,0.016,-0.059,0.003,-0.197,-0.219,-0.206,-0.125,-0.081
'0:00.879',-0.022,-0.075,-0.053,0.049,0.016,-0.064,0.000,-0.194,-0.219,-0.206,-0.125,-0.081
'0:00.880',-0.023,-0.078,-0.055,0.051,0.016,-0.067,0.000,-0.194,-0.216,-0.206,-0.125,-0.081
'0:00.881',-0.025,-0.081,-0.056,0.053,0.016,-0.069,-0.006,-0.200,-0.219,-0.206,-0.125,-0.081
'0:00.882',-0.022,-0.083,-0.061,0.052,0.019,-0.072,-0.003,-0.203,-0.219,-0.212,-0.131,-0.081
'0:00.883',-0.019,-0.081,-0.063,0.050,0.022,-0.072,0.000,-0.206,-0.225,-0.212,-0.131,-0.075
'0:00.884',-0.017,-0.084,-0.067,0.051,0.024,-0.076,-0.009,-0.213,-0.231,-0.222,-0.134,-0.081
'0:00.885',-0.012,-0.084,-0.072,0.049,0.029,-0.078,-0.012,-0.213,-0.238,-0.219,-0.137,-0.081
'0:00.886',-0.014,-0.084,-0.070,0.049,0.027,-0.077,-0.012,-0.216,-0.238,-0.228,-0.137,-0.084
'0:00.887',-0.012,-0.084,-0.072,0.049,0.029,-0.078,-0.012,-0.219,-0.238,-0.231,-0.137,-0.087
'0:00.888',-0.012,-0.083,-0.071,0.048,0.029,-0.077,-0.012,-0.219,-0.238,-0.228,-0.141,-0.081
'0:00.889',-0.012,-0.078,-0.066,0.046,0.026,-0.072,-0.012,-0.219,-0.238,-0.231,-0.137,-0.081
'0:00.890',-0.014,-0.075,-0.061,0.044,0.024,-0.068,-0.012,-0.216,-0.234,-0.225,-0.134,-0.078
'0:00.891',-0.019,-0.075,-0.056,0.047,0.019,-0.066,-0.006,-0.219,-0.231,-0.225,-0.131,-0.075
'0:00.892',-0.022,-0.078,-0.056,0.050,0.017,-0.067,-0.003,-0.222,-0.225,-0.228,-0.128,-0.081
'0:00.893',-0.019,-0.078,-0.059,0.049,0.020,-0.069,0.000,-0.225,-0.225,-0.231,-0.131,-0.081
'0:00.894',-0.023,-0.080,-0.057,0.052,0.017,-0.069,0.000,-0.225,-0.231,-0.225,-0.128,-0.084
'0:00.895',-0.028,-0.084,-0.056,0.056,0.014,-0.071,0.000,-0.225,-0.238,-0.225,-0.131,-0.081
'0:00.896',-0.034,-0.089,-0.055,0.062,0.010,-0.072,0.000,-0.225,-0.241,-0.228,-0.134,-0.091
'0:00.897',-0.037,-0.094,-0.056,0.066,0.009,-0.075,-0.006,-0.225,-0.250,-0.231,-0.144,-0.094
'0:00.898',-0.037,-0.097,-0.059,0.067,0.011,-0.078,-0.003,-0.231,-0.250,-0.231,-0.150,-0.100
'0:00.899',-0.037,-0.100,-0.063,0.069,0.012,-0.081,-0.006,-0.231,-0.250,-0.237,-0.156,-0.100
'0:00.900',-0.042,-0.105,-0.063,0.074,0.011,-0.084,0.003,-0.234,-0.253,-0.244,-0.159,-0.097
'0:00.901',-0.047,-0.113,-0.066,0.080,0.009,-0.089,0.000,-0.238,-0.256,-0.250,-0.162,-0.106
'0:00.902',-0.050,-0.122,-0.072,0.086,0.011,-0.097,-0.003,-0.241,-0.269,-0.263,-0.175,-0.116
'0:00.903',-0.056,-0.131,-0.075,0.094,0.009,-0.103,-0.006,-0.250,-0.275,-0.269,-0.181,-0.125
'0:00.904',-0.062,-0.141,-0.078,0.102,0.007,-0.109,-0.003,-0.256,-0.281,-0.275,-0.181,-0.122
'0:00.905',-0.069,-0.144,-0.075,0.106,0.003,-0.109,-0.006,-0.256,-0.288,-0.275,-0.187,-0.125
'0:00.906',-0.072,-0.150,-0.078,0.111,0.003,-0.114,-0.006,-0.263,-0.291,-0.278,-0.184,-0.128
'0:00.907',-0.075,-0.150,-0.075,0.113,0.000,-0.112,-0.006,-0.263,-0.288,-0.275,-0.187,-0.131
'0:00.908',-0.074,-0.152,-0.078,0.113,0.002,-0.115,-0.006,-0.263,-0.288,-0.281,-0.187,-0.134
'0:00.909',-0.075,-0.150,-0.075,0.113,0.000,-0.112,-0.006,-0.269,-0.288,-0.281,-0.187,-0.131
'0:00.910',-0.071,-0.149,-0.078,0.110,0.004,-0.114,-0.006,-0.263,-0.294,-0.275,-0.191,-0.131
'0:00.911',-0.066,-0.147,-0.081,0.106,0.007,-0.114,-0.006,-0.263,-0.294,-0.275,-0.194,-0.131
'0:00.912',-0.066,-0.148,-0.083,0.107,0.008,-0.116,-0.006,-0.263,-0.294,-0.278,-0.194,-0.128
'0:00.913',-0.066,-0.150,-0.084,0.108,0.009,-0.117,-0.006,-0.263,-0.294,-0.281,-0.194,-0.138
'0:00.914',-0.067,-0.150,-0.083,0.109,0.007,-0.116,-0.009,-0.263,-0.294,-0.278,-0.197,-0.131
'0:00.915',-0.066,-0.150,-0.084,0.108,0.009,-0.117,-0.006,-0.256,-0.294,-0.281,-0.194,-0.131
'0:00.916',-0.069,-0.149,-0.080,0.109,0.006,-0.114,-0.006,-0.259,-0.284,-0.278,-0.194,-0.134
'0:00.917',-0.066,-0.147,-0.081,0.106,0.007,-0.114,-0.006,-0.263,-0.288,-0.275,-0.200,-0.138
'0:00.918',-0.069,-0.148,-0.079,0.109,0.005,-0.114,0.000,-0.259,-0.288,-0.275,-0.191,-0.138
'0:00.919',-0.069,-0.150,-0.081,0.109,0.006,-0.116,-0.006,-0.263,-0.288,-0.275,-0.194,-0.138
'0:00.920',-0.069,-0.149,-0.080,0.109,0.006,-0.114,-0.006,-0.259,-0.284,-0.281,-0.191,-0.138
'0:00.921',-0.069,-0.150,-0.081,0.109,0.006,-0.116,-0.006,-0.269,-0.288,-0.281,-0.187,-0.138
'0:00.922',-0.070,-0.151,-0.081,0.111,0.006,-0.116,-0.012,-0.266,-0.288,-0.278,-0.191,-0.141
'0:00.923',-0.072,-0.150,-0.078,0.111,0.003,-0.114,-0.012,-0.269,-0.288,-0.281,-0.194,-0.138
'0:00.924',-0.070,-0.149,-0.079,0.109,0.004,-0.114,-0.012,-0.269,-0.288,-0.281,-0.194,-0.138
'0:00.925',-0.072,-0.150,-0.078,0.111,0.003,-0.114,-0.012,-0.269,-0.288,-0.281,-0.194,-0.138
'0:00.926',-0.069,-0.153,-0.084,0.111,0.007,-0.119,-0.012,-0.269,-0.288,-0.281,-0.194,-0.138
'0:00.927',-0.066,-0.150,-0.084,0.108,0.009,-0.117,-0.012,-0.269,-0.288,-0.281,-0.194,-0.138
'0:00.928',-0.066,-0.151,-0.086,0.109,0.010,-0.119,-0.012,-0.269,-0.291,-0.281,-0.194,-0.138
'0:00.929',-0.066,-0.153,-0.088,0.109,0.011,-0.121,-0.012,-0.269,-0.294,-0.281,-0.194,-0.138
'0:00.930',-0.069,-0.150,-0.081,0.109,0.006,-0.116,-0.012,-0.263,-0.294,-0.281,-0.194,-0.144
'0:00.931',-0.069,-0.150,-0.081,0.109,0.006,-0.116,-0.012,-0.263,-0.294,-0.275,-0.194,-0.138
'0:00.932',-0.070,-0.153,-0.083,0.112,0.006,-0.118,-0.016,-0.263,-0.297,-0.275,-0.194,-0.138
'0:00.933',-0.075,-0.153,-0.078,0.114,0.001,-0.116,-0.012,-0.263,-0.294,-0.275,-0.194,-0.138
'0:00.934',-0.072,-0.154,-0.083,0.113,0.005,-0.119,-0.009,-0.263,-0.300,-0.275,-0.194,-0.141
'0:00.935',-0.072,-0.156,-0.084,0.114,0.006,-0.121,-0.006,-0.269,-0.300,-0.275,-0.194,-0.144
'0:00.936',-0.069,-0.153,-0.084,0.111,0.007,-0.119,-0.006,-0.272,-0.300,-0.284,-0.194,-0.141
'0:00.937',-0.069,-0.150,-0.081,0.109,0.006,-0.116,-0.006,-0.275,-0.300,-0.288,-0.194,-0.138
'0:00.938',-0.070,-0.151,-0.081,0.111,0.006,-0.116,-0.009,-0.278,-0.300,-0.284,-0.194,-0.138
'0:00.939',-0.072,-0.153,-0.081,0.113,0.004,-0.117,-0.012,-0.275,-0.300,-0.288,-0.194,-0.138
'0:00.940',-0.073,-0.152,-0.079,0.113,0.002,-0.116,-0.012,-0.272,-0.300,-0.284,-0.197,-0.131
'0:00.941',-0.075,-0.150,-0.075,0.113,0.000,-0.112,-0.012,-0.275,-0.300,-0.281,-0.200,-0.138
'0:00.942',-0.071,-0.150,-0.079,0.111,0.004,-0.115,-0.016,-0.278,-0.300,-0.291,-0.200,-0.128
'0:00.943',-0.069,-0.150,-0.081,0.109,0.006,-0.116,-0.012,-0.281,-0.300,-0.288,-0.200,-0.131
'0:00.944',-0.072,-0.151,-0.079,0.112,0.004,-0.116,-0.012,-0.275,-0.297,-0.284,-0.194,-0.134
'0:00.945',-0.072,-0.153,-0.081,0.113,0.004,-0.117,-0.006,-0.275,-0.288,-0.281,-0.200,-0.138
'0:00.946',-0.072,-0.153,-0.081,0.113,0.004,-0.117,-0.003,-0.269,-0.288,-0.284,-0.194,-0.131
'0:00.947',-0.072,-0.153,-0.081,0.113,0.004,-0.117,0.000,-0.275,-0.288,-0.288,-0.200,-0.138
'0:00.948',-0.067,-0.149,-0.081,0.108,0.007,-0.115,-0.009,-0.275,-0.291,-0.288,-0.203,-0.141
'0:00.949',-0.066,-0.147,-0.081,0.106,0.007,-0.114,-0.012,-0.275,-0.294,-0.288,-0.200,-0.138
'0:00.950',-0.069,-0.147,-0.078,0.108,0.004,-0.112,-0.006,-0.275,-0.294,-0.284,-0.197,-0.141
'0:00.951',-0.069,-0.147,-0.078,0.108,0.004,-0.112,-0.006,-0.275,-0.294,-0.288,-0.200,-0.144
'0:00.952',-0.069,-0.151,-0.083,0.110,0.007,-0.117,-0.006,-0.275,-0.294,-0.284,-0.206,-0.144
'0:00.953',-0.069,-0.153,-0.084,0.111,0.007,-0.119,-0.006,-0.275,-0.294,-0.281,-0.206,-0.144
'0:00.954',-0.064,-0.152,-0.088,0.108,0.011,-0.120,-0.006,-0.269,-0.284,-0.281,-0.203,-0.141
'0:00.955',-0.066,-0.150,-0.084,0.108,0.009,-0.117,-0.006,-0.269,-0.281,-0.281,-0.206,-0.144
'0:00.956',-0.070,-0.152,-0.082,0.111,0.006,-0.117,-0.003,-0.269,-0.281,-0.278,-0.203,-0.144
'0:00.957',-0.072,-0.156,-0.084,0.114,0.006,-0.121,0.000,-0.263,-0.281,-0.275,-0.200,-0.150
'0:00.958',-0.076,-0.161,-0.084,0.119,0.004,-0.122,0.009,-0.256,-0.278,-0.272,-0.200,-0.144
'0:00.959',-0.081,-0.169,-0.088,0.125,0.003,-0.128,0.025,-0.244,-0.281,-0.275,-0.200,-0.144
'0:00.960',-0.080,-0.175,-0.095,0.128,0.007,-0.135,0.041,-0.241,-0.281,-0.278,-0.212,-0.163
'0:00.961',-0.081,-0.181,-0.100,0.131,0.009,-0.141,0.056,-0.238,-0.281,-0.281,-0.219,-0.169
'0:00.962',-0.081,-0.189,-0.108,0.135,0.013,-0.148,0.075,-0.238,-0.278,-0.291,-0.234,-0.181
'0:00.963',-0.081,-0.194,-0.113,0.137,0.016,-0.153,0.088,-0.231,-0.275,-0.294,-0.244,-0.194
'0:00.964',-0.080,-0.194,-0.114,0.137,0.017,-0.154,0.103,-0.219,-0.275,-0.303,-0.256,-0.200
'0:00.965',-0.075,-0.191,-0.116,0.133,0.020,-0.153,0.119,-0.206,-0.281,-0.306,-0.262,-0.212
'0:00.966',-0.073,-0.193,-0.119,0.133,0.023,-0.156,0.131,-0.203,-0.275,-0.306,-0.269,-0.219
'0:00.967',-0.072,-0.181,-0.109,0.127,0.019,-0.146,0.150,-0.194,-0.269,-0.306,-0.275,-0.225
'0:00.968',-0.062,-0.177,-0.114,0.120,0.026,-0.146,0.156,-0.178,-0.259,-0.316,-0.278,-0.225
'0:00.969',-0.056,-0.172,-0.116,0.114,0.029,-0.144,0.169,-0.169,-0.256,-0.319,-0.281,-0.225
'0:00.970',-0.051,-0.170,-0.119,0.111,0.034,-0.144,0.178,-0.153,-0.234,-0.309,-0.278,-0.228
'0:00.971',-0.044,-0.163,-0.119,0.103,0.038,-0.141,0.181,-0.125,-0.206,-0.288,-0.269,-0.225
'0:00.972',-0.031,-0.147,-0.116,0.089,0.042,-0.131,0.181,-0.103,-0.191,-0.263,-0.256,-0.222
'0:00.973',-0.025,-0.122,-0.097,0.074,0.036,-0.109,0.181,-0.075,-0.162,-0.237,-0.225,-0.200
'0:00.974',-0.017,-0.089,-0.072,0.054,0.027,-0.081,0.184,-0.053,-0.131,-0.209,-0.200,-0.175
'0:00.975',-0.016,-0.053,-0.038,0.034,0.011,-0.046,0.181,-0.038,-0.106,-0.188,-0.169,-0.150
'0:00.976',-0.014,-0.016,-0.002,0.015,-0.006,-0.009,0.175,-0.031,-0.081,-0.156,-0.128,-0.119
'0:00.977',-0.009,0.025,0.034,-0.008,-0.022,0.029,0.175,-0.006,-0.044,-0.112,-0.081,-0.075
'0:00.978',-0.001,0.072,0.073,-0.035,-0.038,0.073,0.172,0.019,-0.006,-0.069,-0.034,-0.041
'0:00.979',0.009,0.122,0.113,-0.066,-0.052,0.117,0.162,0.050,0.044,-0.006,0.025,0.006
'0:00.980',0.019,0.178,0.159,-0.098,-0.071,0.169,0.147,0.088,0.097,0.053,0.081,0.066
'0:00.981',0.041,0.228,0.187,-0.134,-0.074,0.208,0.119,0.125,0.162,0.131,0.150,0.119
'0:00.982',0.066,0.273,0.207,-0.169,-0.071,0.240,0.097,0.169,0.225,0.197,0.212,0.172
'0:00.983',0.084,0.334,0.250,-0.209,-0.083,0.292,0.069,0.213,0.288,0.269,0.281,0.238
'0:00.984',0.106,0.394,0.287,-0.250,-0.091,0.341,0.041,0.253,0.353,0.344,0.359,0.303
'0:00.985',0.128,0.450,0.322,-0.289,-0.097,0.386,0.013,0.313,0.425,0.437,0.444,0.375
'0:00.986',0.149,0.508,0.359,-0.328,-0.106,0.434,-0.016,0.372,0.509,0.531,0.534,0.450
'0:00.987',0.169,0.575,0.406,-0.372,-0.119,0.491,-0.050,0.450,0.612,0.650,0.638,0.531
'0:00.988',0.195,0.644,0.449,-0.419,-0.127,0.546,-0.084,0.528,0.719,0.769,0.738,0.609
'0:00.989',0.222,0.728,0.506,-0.475,-0.142,0.617,-0.131,0.594,0.819,0.894,0.850,0.700
'0:00.990',0.246,0.809,0.564,-0.528,-0.159,0.686,-0.175,0.666,0.925,1.022,0.966,0.794
'0:00.991',0.266,0.891,0.625,-0.578,-0.180,0.758,-0.219,0.725,1.031,1.156,1.088,0.888
'0:00.992',0.281,0.975,0.694,-0.628,-0.206,0.834,-0.259,0.784,1.131,1.281,1.194,0.991
'0:00.993',0.294,1.053,0.759,-0.673,-0.233,0.906,-0.306,0.813,1.219,1.394,1.300,1.075
'0:00.994',0.314,1.131,0.817,-0.723,-0.252,0.974,-0.353,0.841,1.297,1.506,1.400,1.159
'0:00.995',0.328,1.187,0.859,-0.758,-0.266,1.023,-0.394,0.875,1.375,1.612,1.481,1.225
'0:00.996',0.337,1.221,0.883,-0.779,-0.273,1.052,-0.444,0.909,1.450,1.712,1.559,1.288
'0:00.997',0.337,1.244,0.906,-0.791,-0.284,1.075,-0.456,0.937,1.512,1.794,1.606,1.312
'0:00.998',0.336,1.264,0.928,-0.800,-0.296,1.096,-0.478,0.981,1.572,1.862,1.659,1.341
'0:00.999',0.328,1.284,0.956,-0.806,-0.314,1.120,-0.500,1.019,1.637,1.931,1.706,1.369
'0:01.000',0.323,1.314,0.991,-0.818,-0.334,1.152,-0.519,1.050,1.700,2.000,1.747,1.394
'0:01.001',0.309,1.347,1.037,-0.828,-0.364,1.192,-0.531,1.069,1.744,2.044,1.781,1.412
'0:01.002',0.295,1.373,1.078,-0.834,-0.392,1.226,-0.547,1.084,1.781,2.091,1.809,1.431
'0:01.003',0.275,1.331,1.056,-0.803,-0.391,1.194,-0.550,1.087,1.800,2.100,1.800,1.406
'0:01.004',0.254,1.280,1.026,-0.767,-0.386,1.153,-0.550,1.084,1.816,2.112,1.778,1.375
'0:01.005',0.247,1.194,0.947,-0.720,-0.350,1.070,-0.581,1.050,1.800,2.106,1.738,1.319
'0:01.006',0.233,1.099,0.866,-0.666,-0.316,0.982,-0.606,1.009,1.787,2.091,1.697,1.269
'0:01.007',0.219,1.006,0.787,-0.613,-0.284,0.897,-0.637,0.937,1.737,2.056,1.638,1.206
'0:01.008',0.208,0.911,0.703,-0.559,-0.248,0.807,-0.669,0.881,1.697,2.025,1.581,1.144
'0:01.009',0.203,0.834,0.631,-0.519,-0.214,0.733,-0.700,0.831,1.663,1.994,1.519,1.081
'0:01.010',0.197,0.767,0.571,-0.482,-0.187,0.669,-0.728,0.784,1.619,1.959,1.453,1.025
'0:01.011',0.191,0.716,0.525,-0.453,-0.168,0.620,-0.744,0.725,1.562,1.900,1.381,0.962
'0:01.012',0.179,0.661,0.482,-0.420,-0.151,0.571,-0.759,0.675,1.494,1.834,1.316,0.909
'0:01.013',0.159,0.591,0.431,-0.375,-0.136,0.511,-0.756,0.581,1.369,1.694,1.200,0.831
'0:01.014',0.139,0.524,0.385,-0.331,-0.123,0.454,-0.753,0.478,1.241,1.550,1.091,0.750
'0:01.015',0.125,0.437,0.312,-0.281,-0.094,0.375,-0.737,0.394,1.112,1.394,0.956,0.650
'0:01.016',0.111,0.357,0.247,-0.234,-0.068,0.302,-0.709,0.319,1.000,1.253,0.819,0.550
'0:01.017',0.100,0.259,0.159,-0.179,-0.030,0.209,-0.675,0.250,0.862,1.094,0.669,0.444
'0:01.018',0.083,0.158,0.076,-0.120,0.003,0.117,-0.647,0.188,0.725,0.919,0.516,0.334
'0:01.019',0.062,0.078,0.016,-0.070,0.023,0.047,-0.612,0.106,0.575,0.731,0.375,0.250
'0:01.020',0.044,-0.003,-0.047,-0.020,0.045,-0.025,-0.581,0.025,0.419,0.550,0.241,0.156
'0:01.021',0.025,-0.056,-0.081,0.016,0.053,-0.069,-0.556,-0.075,0.256,0.369,0.138,0.087
'0:01.022',0.008,-0.105,-0.113,0.049,0.060,-0.109,-0.534,-0.175,0.088,0.181,0.041,0.025
'0:01.023',-0.009,-0.138,-0.128,0.074,0.059,-0.133,-0.519,-0.281,-0.088,0.006,-0.037,-0.019
'0:01.024',-0.033,-0.170,-0.138,0.101,0.053,-0.154,-0.487,-0.391,-0.253,-0.156,-0.112,-0.059
'0:01.025',-0.044,-0.194,-0.150,0.119,0.053,-0.172,-0.462,-0.450,-0.350,-0.237,-0.150,-0.081
'0:01.026',-0.050,-0.213,-0.163,0.131,0.056,-0.188,-0.444,-0.497,-0.425,-0.306,-0.178,-0.106
'0:01.027',-0.053,-0.219,-0.166,0.136,0.056,-0.193,-0.425,-0.494,-0.431,-0.313,-0.181,-0.112
'0:01.028',-0.048,-0.221,-0.173,0.134,0.062,-0.197,-0.403,-0.488,-0.434,-0.313,-0.187,-0.119
'0:01.029',-0.053,-0.213,-0.159,0.133,0.053,-0.186,-0.381,-0.469,-0.425,-0.306,-0.194,-0.119
'0:01.030',-0.056,-0.205,-0.149,0.131,0.046,-0.177,-0.356,-0.447,-0.400,-0.288,-0.178,-0.119
'0:01.031',-0.059,-0.191,-0.131,0.125,0.036,-0.161,-0.325,-0.419,-0.375,-0.263,-0.169,-0.112
'0:01.032',-0.056,-0.175,-0.119,0.116,0.031,-0.147,-0.297,-0.384,-0.350,-0.241,-0.156,-0.112
'0:01.033',-0.056,-0.163,-0.106,0.109,0.025,-0.134,-0.269,-0.356,-0.325,-0.225,-0.150,-0.112
'0:01.034',-0.055,-0.154,-0.099,0.105,0.022,-0.127,-0.244,-0.331,-0.306,-0.219,-0.141,-0.106
'0:01.035',-0.053,-0.147,-0.094,0.100,0.020,-0.121,-0.219,-0.300,-0.288,-0.212,-0.144,-0.100
'0:01.036',-0.044,-0.136,-0.093,0.090,0.024,-0.114,-0.197,-0.275,-0.269,-0.200,-0.134,-0.100
'0:01.037',-0.034,-0.128,-0.094,0.081,0.029,-0.111,-0.175,-0.250,-0.250,-0.200,-0.137,-0.100
'0:01.038',-0.031,-0.121,-0.089,0.076,0.029,-0.105,-0.156,-0.231,-0.238,-0.194,-0.134,-0.097
'0:01.039',-0.034,-0.113,-0.078,0.074,0.022,-0.096,-0.131,-0.206,-0.219,-0.181,-0.125,-0.087
'0:01.040',-0.036,-0.102,-0.066,0.069,0.015,-0.084,-0.119,-0.188,-0.200,-0.175,-0.122,-0.091
'0:01.041',-0.034,-0.094,-0.059,0.064,0.012,-0.077,-0.100,-0.175,-0.187,-0.163,-0.119,-0.087
'0:01.042',-0.034,-0.089,-0.054,0.062,0.010,-0.072,-0.087,-0.163,-0.175,-0.163,-0.112,-0.087
'0:01.043',-0.034,-0.091,-0.056,0.062,0.011,-0.074,-0.075,-0.156,-0.169,-0.156,-0.112,-0.081
'0:01.044',-0.033,-0.092,-0.059,0.062,0.012,-0.076,-0.066,-0.144,-0.169,-0.156,-0.116,-0.078
'0:01.045',-0.034,-0.091,-0.056,0.062,0.011,-0.074,-0.050,-0.138,-0.162,-0.150,-0.119,-0.075
'0:01.046',-0.036,-0.094,-0.058,0.065,0.011,-0.076,-0.047,-0.134,-0.159,-0.144,-0.112,-0.078
'0:01.047',-0.037,-0.091,-0.053,0.064,0.007,-0.072,-0.044,-0.131,-0.156,-0.144,-0.112,-0.075
'0:01.048',-0.036,-0.088,-0.051,0.062,0.007,-0.069,-0.037,-0.131,-0.156,-0.147,-0.109,-0.084
'0:01.049',-0.034,-0.084,-0.050,0.059,0.007,-0.067,-0.037,-0.131,-0.156,-0.150,-0.112,-0.081
'0:01.050',-0.036,-0.083,-0.047,0.060,0.005,-0.065,-0.031,-0.134,-0.153,-0.150,-0.112,-0.081
'0:01.051',-0.034,-0.081,-0.047,0.058,0.006,-0.064,-0.031,-0.131,-0.156,-0.150,-0.112,-0.081
'0:01.052',-0.034,-0.078,-0.044,0.056,0.004,-0.061,-0.025,-0.128,-0.153,-0.147,-0.112,-0.081
'0:01.053',-0.034,-0.075,-0.041,0.055,0.003,-0.058,-0.025,-0.131,-0.156,-0.150,-0.119,-0.081
'0:01.054',-0.034,-0.074,-0.039,0.054,0.002,-0.057,-0.022,-0.131,-0.150,-0.150,-0.116,-0.078
'0:01.055',-0.037,-0.072,-0.034,0.055,-0.002,-0.053,-0.025,-0.131,-0.156,-0.156,-0.112,-0.081
'0:01.056',-0.039,-0.075,-0.036,0.057,-0.001,-0.056,-0.012,-0.134,-0.156,-0.153,-0.116,-0.081
'0:01.057',-0.041,-0.078,-0.038,0.059,-0.002,-0.058,-0.006,-0.131,-0.156,-0.150,-0.112,-0.081
'0:01.058',-0.037,-0.078,-0.041,0.058,0.001,-0.059,-0.003,-0.131,-0.156,-0.156,-0.109,-0.087
'0:01.059',-0.037,-0.078,-0.041,0.058,0.001,-0.059,-0.006,-0.131,-0.156,-0.156,-0.112,-0.087
'0:01.060',-0.039,-0.078,-0.039,0.059,0.000,-0.059,0.000,-0.131,-0.156,-0.159,-0.116,-0.084
'0:01.061',-0.041,-0.084,-0.044,0.062,0.001,-0.064,0.000,-0.125,-0.156,-0.163,-0.119,-0.081
'0:01.062',-0.045,-0.086,-0.041,0.066,-0.002,-0.063,0.009,-0.125,-0.156,-0.159,-0.122,-0.081
'0:01.063',-0.047,-0.088,-0.041,0.067,-0.003,-0.064,0.013,-0.125,-0.156,-0.156,-0.119,-0.081
'0:01.064',-0.047,-0.092,-0.045,0.069,-0.001,-0.069,0.013,-0.125,-0.159,-0.159,-0.119,-0.081
'0:01.065',-0.044,-0.091,-0.047,0.067,0.001,-0.069,0.013,-0.125,-0.162,-0.163,-0.119,-0.081
'0:01.066',-0.042,-0.091,-0.048,0.067,0.002,-0.069,0.013,-0.122,-0.156,-0.159,-0.119,-0.084
'0:01.067',-0.041,-0.091,-0.050,0.066,0.004,-0.071,0.013,-0.119,-0.162,-0.156,-0.119,-0.081
'0:01.068',-0.037,-0.086,-0.049,0.062,0.006,-0.067,0.013,-0.122,-0.166,-0.159,-0.119,-0.084
'0:01.069',-0.037,-0.084,-0.047,0.061,0.004,-0.066,0.013,-0.125,-0.162,-0.163,-0.119,-0.087
'0:01.070',-0.036,-0.086,-0.050,0.061,0.007,-0.068,0.013,-0.125,-0.159,-0.166,-0.119,-0.084
'0:01.071',-0.034,-0.084,-0.050,0.059,0.007,-0.067,0.013,-0.125,-0.156,-0.169,-0.119,-0.081
'0:01.072',-0.034,-0.081,-0.047,0.058,0.006,-0.064,0.009,-0.125,-0.156,-0.169,-0.119,-0.087
'0:01.073',-0.034,-0.075,-0.041,0.055,0.003,-0.058,0.006,-0.119,-0.156,-0.169,-0.119,-0.087
'0:01.074',-0.037,-0.075,-0.038,0.056,0.000,-0.056,0.013,-0.119,-0.153,-0.166,-0.119,-0.081
'0:01.075',-0.041,-0.078,-0.038,0.059,-0.002,-0.058,0.013,-0.119,-0.150,-0.163,-0.119,-0.081
'0:01.076',-0.041,-0.081,-0.041,0.061,0.000,-0.061,0.016,-0.119,-0.153,-0.166,-0.119,-0.081
'0:01.077',-0.041,-0.081,-0.041,0.061,0.000,-0.061,0.019,-0.113,-0.150,-0.169,-0.119,-0.087
'0:01.078',-0.044,-0.084,-0.041,0.064,-0.002,-0.062,0.025,-0.113,-0.147,-0.163,-0.116,-0.091
'0:01.079',-0.041,-0.084,-0.044,0.062,0.001,-0.064,0.025,-0.113,-0.144,-0.163,-0.112,-0.087
'0:01.080',-0.041,-0.084,-0.044,0.062,0.001,-0.064,0.016,-0.113,-0.144,-0.163,-0.112,-0.094
'0:01.081',-0.041,-0.084,-0.044,0.062,0.001,-0.064,0.019,-0.106,-0.144,-0.163,-0.112,-0.087
'0:01.082',-0.042,-0.083,-0.041,0.062,-0.001,-0.062,0.022,-0.106,-0.147,-0.163,-0.116,-0.087
'0:01.083',-0.041,-0.081,-0.041,0.061,0.000,-0.061,0.019,-0.106,-0.150,-0.163,-0.119,-0.087
'0:01.084',-0.042,-0.078,-0.036,0.060,-0.003,-0.057,0.016,-0.106,-0.150,-0.166,-0.119,-0.087
'0:01.085',-0.044,-0.078,-0.034,0.061,-0.005,-0.056,0.013,-0.106,-0.150,-0.163,-0.119,-0.087
'0:01.086',-0.046,-0.077,-0.031,0.061,-0.007,-0.054,0.013,-0.103,-0.144,-0.159,-0.116,-0.084
'0:01.087',-0.047,-0.075,-0.028,0.061,-0.009,-0.052,0.013,-0.100,-0.144,-0.156,-0.119,-0.075
'0:01.088',-0.042,-0.072,-0.029,0.058,-0.007,-0.051,0.013,-0.106,-0.144,-0.156,-0.119,-0.084
'0:01.089',-0.037,-0.072,-0.034,0.055,-0.002,-0.053,0.013,-0.106,-0.144,-0.156,-0.119,-0.087
'0:01.090',-0.036,-0.070,-0.034,0.053,-0.001,-0.052,0.013,-0.106,-0.137,-0.156,-0.119,-0.091
'0:01.091',-0.034,-0.072,-0.038,0.053,0.001,-0.055,0.013,-0.106,-0.137,-0.156,-0.119,-0.087
'0:01.092',-0.031,-0.071,-0.039,0.051,0.004,-0.055,0.016,-0.109,-0.141,-0.159,-0.116,-0.084
'0:01.093',-0.028,-0.069,-0.041,0.049,0.006,-0.055,0.006,-0.113,-0.137,-0.156,-0.112,-0.081
'0:01.094',-0.028,-0.068,-0.039,0.048,0.006,-0.054,0.013,-0.106,-0.137,-0.156,-0.116,-0.081
'0:01.095',-0.028,-0.066,-0.038,0.047,0.004,-0.052,0.006,-0.106,-0.137,-0.156,-0.119,-0.081
'0:01.096',-0.025,-0.067,-0.042,0.046,0.008,-0.054,0.016,-0.097,-0.134,-0.150,-0.112,-0.081
'0:01.097',-0.028,-0.069,-0.041,0.049,0.006,-0.055,0.019,-0.094,-0.131,-0.150,-0.112,-0.081
'0:01.098',-0.028,-0.070,-0.042,0.049,0.007,-0.056,0.019,-0.094,-0.134,-0.144,-0.109,-0.078
'0:01.099',-0.031,-0.069,-0.038,0.050,0.003,-0.053,0.019,-0.094,-0.131,-0.138,-0.106,-0.081
'0:01.100',-0.029,-0.072,-0.043,0.051,0.006,-0.057,0.019,-0.084,-0.125,-0.138,-0.109,-0.081
'0:01.101',-0.031,-0.072,-0.041,0.052,0.004,-0.056,0.019,-0.088,-0.125,-0.138,-0.112,-0.081
'0:01.102',-0.031,-0.068,-0.036,0.049,0.002,-0.052,0.013,-0.094,-0.122,-0.134,-0.103,-0.084
'0:01.103',-0.031,-0.066,-0.034,0.049,0.001,-0.050,0.019,-0.094,-0.119,-0.138,-0.100,-0.075
'0:01.104',-0.033,-0.068,-0.035,0.050,0.001,-0.051,0.019,-0.084,-0.116,-0.131,-0.103,-0.075
'0:01.105',-0.034,-0.066,-0.031,0.050,-0.002,-0.049,0.019,-0.081,-0.119,-0.131,-0.100,-0.075
'0:01.106',-0.031,-0.064,-0.033,0.047,0.001,-0.048,0.019,-0.078,-0.116,-0.134,-0.100,-0.072
'0:01.107',-0.031,-0.066,-0.034,0.049,0.001,-0.050,0.019,-0.075,-0.113,-0.138,-0.100,-0.075
'0:01.108',-0.031,-0.066,-0.034,0.049,0.001,-0.050,0.019,-0.066,-0.113,-0.131,-0.100,-0.075
'0:01.109',-0.031,-0.066,-0.034,0.049,0.001,-0.050,0.019,-0.063,-0.106,-0.131,-0.100,-0.075
'0:01.110',-0.031,-0.061,-0.030,0.046,-0.001,-0.046,0.019,-0.066,-0.109,-0.131,-0.103,-0.075
'0:01.111',-0.031,-0.059,-0.028,0.046,-0.002,-0.044,0.025,-0.063,-0.106,-0.131,-0.100,-0.075
'0:01.112',-0.030,-0.059,-0.029,0.045,-0.001,-0.044,0.022,-0.063,-0.106,-0.128,-0.097,-0.075
'0:01.113',-0.028,-0.059,-0.031,0.044,0.001,-0.046,0.025,-0.063,-0.106,-0.125,-0.094,-0.075
'0:01.114',-0.024,-0.061,-0.037,0.043,0.006,-0.049,0.022,-0.063,-0.109,-0.122,-0.094,-0.075
'0:01.115',-0.019,-0.059,-0.041,0.039,0.011,-0.050,0.019,-0.056,-0.106,-0.119,-0.094,-0.075
'0:01.116',-0.020,-0.059,-0.039,0.040,0.009,-0.049,0.025,-0.056,-0.103,-0.116,-0.081,-0.066
'0:01.117',-0.022,-0.063,-0.041,0.043,0.009,-0.052,0.025,-0.050,-0.094,-0.112,-0.081,-0.062
'0:01.118',-0.022,-0.058,-0.036,0.040,0.007,-0.047,0.022,-0.053,-0.097,-0.106,-0.081,-0.066
'0:01.119',-0.028,-0.056,-0.028,0.043,0.000,-0.042,0.019,-0.050,-0.094,-0.106,-0.087,-0.062
'0:01.120',-0.025,-0.056,-0.031,0.041,0.003,-0.044,0.019,-0.041,-0.094,-0.106,-0.081,-0.066
'0:01.121',-0.019,-0.053,-0.034,0.036,0.007,-0.044,0.019,-0.038,-0.094,-0.106,-0.087,-0.069
'0:01.122',-0.019,-0.051,-0.033,0.035,0.007,-0.042,0.019,-0.044,-0.091,-0.103,-0.087,-0.062
'0:01.123',-0.016,-0.050,-0.034,0.033,0.009,-0.042,0.025,-0.038,-0.081,-0.106,-0.081,-0.056
'0:01.124',-0.016,-0.051,-0.036,0.034,0.010,-0.044,0.022,-0.041,-0.078,-0.100,-0.081,-0.056
'0:01.125',-0.016,-0.050,-0.034,0.033,0.009,-0.042,0.025,-0.038,-0.069,-0.100,-0.075,-0.050
'0:01.126',-0.011,-0.050,-0.039,0.031,0.014,-0.044,0.025,-0.028,-0.069,-0.097,-0.072,-0.050
'0:01.127',-0.016,-0.050,-0.034,0.033,0.009,-0.042,0.025,-0.025,-0.063,-0.087,-0.069,-0.050
'0:01.128',-0.016,-0.046,-0.030,0.031,0.007,-0.038,0.025,-0.028,-0.063,-0.091,-0.072,-0.050
'0:01.129',-0.016,-0.038,-0.022,0.027,0.003,-0.030,0.025,-0.025,-0.063,-0.087,-0.075,-0.050
'0:01.130',-0.012,-0.034,-0.022,0.024,0.004,-0.028,0.025,-0.025,-0.056,-0.087,-0.069,-0.047
'0:01.131',-0.012,-0.031,-0.019,0.022,0.003,-0.025,0.025,-0.019,-0.056,-0.081,-0.069,-0.044
'0:01.132',-0.012,-0.034,-0.022,0.024,0.004,-0.028,0.025,-0.019,-0.053,-0.078,-0.069,-0.047
'0:01.133',-0.012,-0.034,-0.022,0.024,0.004,-0.028,0.025,-0.013,-0.050,-0.075,-0.069,-0.044
'0:01.134',-0.014,-0.036,-0.022,0.025,0.004,-0.029,0.025,-0.009,-0.050,-0.078,-0.062,-0.047
'0:01.135',-0.012,-0.034,-0.022,0.024,0.004,-0.028,0.025,0.000,-0.050,-0.075,-0.062,-0.050
'0:01.136',-0.014,-0.036,-0.022,0.025,0.004,-0.029,0.025,0.000,-0.041,-0.072,-0.059,-0.047
'0:01.137',-0.016,-0.034,-0.019,0.025,0.001,-0.027,0.025,0.006,-0.038,-0.063,-0.050,-0.044
'0:01.138',-0.017,-0.039,-0.022,0.028,0.002,-0.031,0.025,0.006,-0.034,-0.056,-0.053,-0.038
'0:01.139',-0.019,-0.038,-0.019,0.028,0.000,-0.028,0.025,0.012,-0.031,-0.056,-0.056,-0.038
'0:01.140',-0.019,-0.034,-0.016,0.027,-0.002,-0.025,0.025,0.012,-0.028,-0.053,-0.047,-0.038
'0:01.141',-0.016,-0.034,-0.019,0.025,0.001,-0.027,0.031,0.019,-0.019,-0.056,-0.044,-0.038
'0:01.142',-0.016,-0.030,-0.014,0.023,-0.001,-0.022,0.031,0.028,-0.019,-0.050,-0.037,-0.038
'0:01.143',-0.012,-0.028,-0.016,0.021,0.001,-0.022,0.025,0.031,-0.013,-0.050,-0.037,-0.031
'0:01.144',-0.008,-0.029,-0.021,0.019,0.006,-0.026,0.034,0.037,-0.016,-0.044,-0.041,-0.028
'0:01.145',-0.009,-0.028,-0.019,0.019,0.004,-0.024,0.038,0.044,-0.013,-0.044,-0.044,-0.025
'0:01.146',-0.005,-0.024,-0.019,0.014,0.007,-0.021,0.031,0.041,-0.009,-0.038,-0.044,-0.028
'0:01.147',0.000,-0.016,-0.016,0.008,0.007,-0.016,0.031,0.044,0.000,-0.038,-0.037,-0.031
'0:01.148',0.003,-0.016,-0.019,0.006,0.011,-0.017,0.034,0.050,0.006,-0.031,-0.034,-0.028
'0:01.149',0.003,-0.019,-0.022,0.008,0.012,-0.021,0.038,0.050,0.012,-0.025,-0.031,-0.031
'0:01.150',0.003,-0.019,-0.022,0.008,0.012,-0.021,0.034,0.056,0.012,-0.022,-0.025,-0.028
'0:01.151',0.003,-0.019,-0.022,0.008,0.012,-0.021,0.038,0.062,0.019,-0.013,-0.025,-0.025
'0:01.152',0.003,-0.018,-0.021,0.007,0.012,-0.019,0.038,0.062,0.022,-0.016,-0.028,-0.025
'0:01.153',0.003,-0.016,-0.019,0.006,0.011,-0.017,0.038,0.069,0.025,-0.013,-0.025,-0.019
'0:01.154',0.003,-0.013,-0.016,0.005,0.009,-0.014,0.034,0.075,0.025,-0.006,-0.028,-0.019
'0:01.155',0.006,-0.009,-0.016,0.002,0.011,-0.012,0.038,0.081,0.031,-0.006,-0.025,-0.012
'0:01.156',0.003,-0.008,-0.011,0.003,0.007,-0.010,0.034,0.081,0.034,0.000,-0.019,-0.016
'0:01.157',0.003,-0.003,-0.006,0.000,0.004,-0.005,0.038,0.088,0.038,0.006,-0.019,-0.012
'0:01.158',0.006,-0.001,-0.008,-0.003,0.007,-0.004,0.034,0.094,0.047,0.013,-0.019,-0.012
'0:01.159',0.006,-0.003,-0.009,-0.001,0.007,-0.006,0.031,0.100,0.056,0.013,-0.012,-0.012
'0:01.160',0.008,-0.003,-0.011,-0.003,0.009,-0.007,0.034,0.109,0.056,0.016,-0.009,-0.003
'0:01.161',0.006,0.000,-0.006,-0.003,0.006,-0.003,0.038,0.119,0.063,0.019,0.000,0.000
'0:01.162',0.009,0.002,-0.008,-0.006,0.008,-0.003,0.038,0.125,0.069,0.028,-0.003,0.000
'0:01.163',0.009,0.003,-0.006,-0.006,0.007,-0.002,0.038,0.131,0.075,0.038,0.000,0.000
'0:01.164',0.006,0.003,-0.003,-0.004,0.004,0.000,0.034,0.134,0.078,0.034,0.000,0.003
'0:01.165',0.009,0.003,-0.006,-0.006,0.007,-0.002,0.031,0.144,0.081,0.044,0.006,0.000
'0:01.166',0.011,0.006,-0.004,-0.008,0.007,0.001,0.041,0.153,0.094,0.050,0.016,0.009
'0:01.167',0.016,0.009,-0.006,-0.012,0.011,0.001,0.038,0.156,0.106,0.062,0.019,0.013
'0:01.168',0.020,0.016,-0.004,-0.018,0.012,0.006,0.034,0.159,0.109,0.069,0.019,0.016
'0:01.169',0.022,0.025,0.003,-0.023,0.009,0.014,0.038,0.169,0.113,0.075,0.025,0.013
'0:01.170',0.021,0.022,0.001,-0.021,0.009,0.011,0.038,0.175,0.119,0.078,0.031,0.022
'0:01.171',0.022,0.025,0.003,-0.023,0.009,0.014,0.038,0.181,0.125,0.081,0.038,0.025
'0:01.172',0.024,0.025,0.001,-0.024,0.011,0.013,0.044,0.188,0.131,0.091,0.038,0.025
'0:01.173',0.025,0.025,0.000,-0.025,0.012,0.013,0.044,0.194,0.137,0.100,0.038,0.025
'0:01.174',0.028,0.028,0.000,-0.028,0.014,0.014,0.044,0.203,0.141,0.100,0.044,0.028
'0:01.175',0.028,0.031,0.003,-0.029,0.012,0.017,0.044,0.213,0.150,0.112,0.044,0.025
'0:01.176',0.033,0.030,-0.003,-0.031,0.017,0.014,0.044,0.219,0.153,0.119,0.050,0.031
'0:01.177',0.031,0.031,0.000,-0.031,0.016,0.016,0.050,0.231,0.162,0.125,0.056,0.031
'0:01.178',0.034,0.032,-0.002,-0.033,0.018,0.015,0.047,0.238,0.172,0.131,0.059,0.038
'0:01.179',0.037,0.041,0.003,-0.039,0.017,0.022,0.044,0.244,0.181,0.138,0.056,0.038
'0:01.180',0.039,0.044,0.004,-0.041,0.017,0.024,0.044,0.259,0.187,0.144,0.066,0.041
'0:01.181',0.037,0.047,0.009,-0.042,0.014,0.028,0.044,0.269,0.194,0.150,0.075,0.050
'0:01.182',0.039,0.050,0.011,-0.044,0.014,0.030,0.044,0.275,0.206,0.163,0.075,0.047
'0:01.183',0.041,0.050,0.009,-0.045,0.016,0.029,0.044,0.288,0.212,0.169,0.081,0.050
'0:01.184',0.042,0.057,0.016,-0.049,0.013,0.036,0.047,0.294,0.228,0.175,0.088,0.050
'0:01.185',0.044,0.062,0.019,-0.053,0.012,0.041,0.050,0.306,0.237,0.187,0.094,0.056
'0:01.186',0.048,0.061,0.013,-0.054,0.017,0.037,0.047,0.309,0.244,0.191,0.094,0.059
'0:01.187',0.053,0.066,0.013,-0.059,0.020,0.039,0.044,0.319,0.256,0.200,0.100,0.069
'0:01.188',0.053,0.070,0.017,-0.061,0.018,0.043,0.044,0.328,0.259,0.212,0.109,0.069
'0:01.189',0.056,0.075,0.019,-0.066,0.019,0.047,0.044,0.344,0.269,0.225,0.119,0.075
'0:01.190',0.059,0.081,0.022,-0.070,0.019,0.051,0.047,0.356,0.284,0.231,0.113,0.075
'0:01.191',0.059,0.084,0.025,-0.072,0.017,0.054,0.050,0.369,0.294,0.244,0.119,0.081
'0:01.192',0.062,0.081,0.019,-0.072,0.022,0.050,0.050,0.375,0.306,0.247,0.125,0.087
'0:01.193',0.062,0.084,0.022,-0.073,0.020,0.053,0.056,0.388,0.319,0.256,0.131,0.087
'0:01.194',0.064,0.086,0.022,-0.075,0.021,0.054,0.059,0.400,0.328,0.269,0.138,0.094
'0:01.195',0.066,0.087,0.022,-0.076,0.022,0.054,0.063,0.413,0.344,0.281,0.150,0.100
'0:01.196',0.070,0.098,0.028,-0.084,0.021,0.063,0.053,0.419,0.353,0.288,0.153,0.097
'0:01.197',0.075,0.106,0.031,-0.091,0.022,0.069,0.056,0.431,0.356,0.300,0.162,0.100
'0:01.198',0.078,0.109,0.031,-0.094,0.023,0.070,0.056,0.444,0.375,0.309,0.166,0.106
'0:01.199',0.081,0.116,0.034,-0.098,0.023,0.075,0.056,0.456,0.387,0.325,0.162,0.106
'0:01.200',0.083,0.117,0.034,-0.100,0.024,0.076,0.059,0.475,0.400,0.331,0.178,0.113
'0:01.201',0.084,0.119,0.034,-0.101,0.025,0.076,0.063,0.481,0.412,0.337,0.188,0.119
'0:01.202',0.091,0.128,0.038,-0.109,0.026,0.083,0.063,0.494,0.425,0.350,0.194,0.125
'0:01.203',0.097,0.137,0.041,-0.117,0.028,0.089,0.063,0.513,0.437,0.362,0.200,0.131
'0:01.204',0.100,0.142,0.042,-0.121,0.029,0.092,0.066,0.522,0.450,0.372,0.203,0.131
'0:01.205',0.103,0.150,0.047,-0.126,0.028,0.098,0.069,0.531,0.462,0.381,0.212,0.138
'0:01.206',0.106,0.153,0.047,-0.129,0.029,0.100,0.069,0.553,0.475,0.400,0.219,0.141
'0:01.207',0.103,0.156,0.053,-0.129,0.025,0.104,0.069,0.569,0.487,0.419,0.225,0.144
'0:01.208',0.111,0.161,0.051,-0.136,0.030,0.106,0.069,0.581,0.506,0.419,0.234,0.150
'0:01.209',0.116,0.166,0.050,-0.141,0.032,0.108,0.069,0.594,0.519,0.431,0.238,0.156
'0:01.210',0.117,0.169,0.052,-0.143,0.032,0.110,0.069,0.606,0.534,0.444,0.253,0.156
'0:01.211',0.122,0.175,0.053,-0.148,0.034,0.114,0.069,0.625,0.556,0.456,0.262,0.163
'0:01.212',0.128,0.181,0.053,-0.154,0.038,0.117,0.069,0.638,0.559,0.469,0.269,0.169
'0:01.213',0.134,0.191,0.056,-0.163,0.039,0.123,0.069,0.650,0.575,0.481,0.275,0.175
'0:01.214',0.134,0.196,0.061,-0.165,0.036,0.128,0.069,0.669,0.591,0.494,0.281,0.184
'0:01.215',0.137,0.197,0.059,-0.167,0.039,0.128,0.069,0.681,0.606,0.506,0.294,0.187
'0:01.216',0.139,0.202,0.063,-0.171,0.038,0.132,0.072,0.697,0.619,0.528,0.300,0.203
'0:01.217',0.141,0.206,0.066,-0.173,0.038,0.136,0.075,0.713,0.637,0.544,0.306,0.206
'0:01.218',0.148,0.211,0.063,-0.179,0.043,0.137,0.075,0.722,0.650,0.556,0.319,0.209
'0:01.219',0.150,0.216,0.066,-0.183,0.042,0.141,0.075,0.731,0.662,0.569,0.325,0.219
'0:01.220',0.150,0.222,0.072,-0.186,0.039,0.147,0.072,0.753,0.675,0.581,0.334,0.219
'0:01.221',0.153,0.228,0.075,-0.191,0.039,0.151,0.069,0.769,0.687,0.594,0.344,0.225
'0:01.222',0.158,0.233,0.075,-0.196,0.041,0.154,0.072,0.781,0.706,0.606,0.356,0.231
'0:01.223',0.159,0.237,0.078,-0.198,0.041,0.158,0.075,0.794,0.719,0.619,0.363,0.238
'0:01.224',0.162,0.250,0.088,-0.206,0.038,0.169,0.072,0.806,0.731,0.631,0.366,0.244
'0:01.225',0.166,0.256,0.091,-0.211,0.038,0.173,0.069,0.819,0.744,0.644,0.369,0.244
'0:01.226',0.169,0.259,0.091,-0.214,0.039,0.175,0.072,0.828,0.759,0.659,0.384,0.253
'0:01.227',0.172,0.266,0.094,-0.219,0.039,0.179,0.075,0.850,0.775,0.675,0.394,0.263
'0:01.228',0.175,0.272,0.097,-0.223,0.039,0.184,0.075,0.853,0.784,0.684,0.397,0.266
'0:01.229',0.178,0.275,0.097,-0.226,0.041,0.186,0.075,0.869,0.794,0.694,0.406,0.269
'0:01.230',0.180,0.280,0.100,-0.230,0.040,0.190,0.075,0.881,0.806,0.709,0.416,0.275
'0:01.231',0.181,0.284,0.103,-0.233,0.039,0.194,0.075,0.894,0.819,0.719,0.425,0.281
'0:01.232',0.187,0.287,0.100,-0.238,0.044,0.194,0.075,0.909,0.834,0.728,0.428,0.284
'0:01.233',0.194,0.297,0.103,-0.245,0.045,0.200,0.075,0.919,0.844,0.737,0.431,0.287
'0:01.234',0.197,0.303,0.106,-0.250,0.045,0.204,0.066,0.925,0.853,0.750,0.438,0.287
'0:01.235',0.200,0.312,0.113,-0.256,0.044,0.213,0.069,0.937,0.862,0.756,0.450,0.294
'0:01.236',0.201,0.316,0.114,-0.258,0.043,0.215,0.069,0.944,0.869,0.772,0.450,0.300
'0:01.237',0.206,0.322,0.116,-0.264,0.045,0.219,0.069,0.956,0.881,0.781,0.456,0.306
'0:01.238',0.206,0.324,0.118,-0.265,0.044,0.221,0.069,0.966,0.891,0.791,0.466,0.316
'0:01.239',0.209,0.328,0.119,-0.269,0.045,0.223,0.069,0.975,0.900,0.800,0.469,0.319
'0:01.240',0.212,0.334,0.122,-0.273,0.045,0.228,0.069,0.981,0.906,0.809,0.472,0.322
'0:01.241',0.216,0.344,0.128,-0.279,0.044,0.236,0.069,0.987,0.919,0.812,0.475,0.325
'0:01.242',0.212,0.342,0.130,-0.278,0.041,0.236,0.059,1.000,0.928,0.819,0.484,0.334
'0:01.243',0.216,0.344,0.128,-0.279,0.044,0.236,0.063,1.012,0.937,0.825,0.488,0.338
'0:01.244',0.214,0.353,0.139,-0.284,0.038,0.246,0.066,1.019,0.944,0.831,0.488,0.334
'0:01.245',0.212,0.359,0.147,-0.286,0.032,0.253,0.063,1.025,0.950,0.837,0.494,0.338
'0:01.246',0.216,0.359,0.144,-0.288,0.036,0.251,0.059,1.028,0.953,0.844,0.500,0.341
'0:01.247',0.216,0.366,0.150,-0.291,0.032,0.258,0.063,1.031,0.956,0.850,0.506,0.344
'0:01.248',0.216,0.370,0.154,-0.293,0.031,0.262,0.056,1.028,0.966,0.856,0.513,0.347
'0:01.249',0.216,0.375,0.159,-0.295,0.028,0.267,0.063,1.025,0.969,0.856,0.513,0.350
'0:01.250',0.219,0.380,0.161,-0.299,0.029,0.271,0.063,1.031,0.972,0.866,0.516,0.356
'0:01.251',0.219,0.378,0.159,-0.298,0.029,0.269,0.063,1.031,0.969,0.869,0.525,0.356
'0:01.252',0.220,0.380,0.160,-0.300,0.030,0.270,0.063,1.028,0.981,0.869,0.528,0.366
'0:01.253',0.219,0.384,0.166,-0.301,0.026,0.275,0.063,1.031,0.981,0.869,0.531,0.369
'0:01.254',0.223,0.389,0.166,-0.306,0.029,0.277,0.063,1.028,0.984,0.872,0.528,0.369
'0:01.255',0.225,0.397,0.172,-0.311,0.026,0.284,0.063,1.025,0.981,0.875,0.531,0.369
'0:01.256',0.225,0.398,0.173,-0.311,0.026,0.286,0.066,1.025,0.975,0.869,0.525,0.369
'0:01.257',0.222,0.397,0.175,-0.309,0.023,0.286,0.069,1.012,0.969,0.862,0.525,0.369
'0:01.258',0.217,0.396,0.178,-0.306,0.019,0.287,0.072,1.006,0.963,0.859,0.525,0.366
'0:01.259',0.212,0.397,0.184,-0.304,0.014,0.291,0.075,0.994,0.956,0.856,0.525,0.363
'0:01.260',0.211,0.400,0.189,-0.306,0.011,0.294,0.072,0.981,0.944,0.850,0.525,0.359
'0:01.261',0.206,0.397,0.191,-0.301,0.007,0.294,0.075,0.969,0.937,0.837,0.525,0.363
'0:01.262',0.206,0.396,0.189,-0.301,0.008,0.292,0.075,0.953,0.925,0.825,0.525,0.363
'0:01.263',0.203,0.391,0.187,-0.297,0.007,0.289,0.075,0.937,0.912,0.812,0.519,0.356
'0:01.264',0.201,0.392,0.191,-0.296,0.005,0.291,0.075,0.916,0.894,0.800,0.513,0.356
'0:01.265',0.200,0.394,0.194,-0.297,0.003,0.294,0.075,0.894,0.875,0.781,0.500,0.350
'0:01.266',0.192,0.389,0.197,-0.291,-0.002,0.293,0.078,0.878,0.856,0.763,0.497,0.347
'0:01.267',0.184,0.384,0.200,-0.284,-0.008,0.292,0.075,0.862,0.837,0.750,0.488,0.344
'0:01.268',0.178,0.380,0.202,-0.279,-0.012,0.291,0.072,0.837,0.819,0.734,0.475,0.341
'0:01.269',0.172,0.369,0.197,-0.270,-0.012,0.282,0.069,0.819,0.800,0.719,0.469,0.331
'0:01.270',0.166,0.358,0.192,-0.262,-0.014,0.275,0.078,0.794,0.784,0.706,0.463,0.325
'0:01.271',0.159,0.350,0.191,-0.254,-0.016,0.270,0.081,0.775,0.763,0.681,0.444,0.319
'0:01.272',0.152,0.345,0.193,-0.248,-0.021,0.269,0.078,0.759,0.734,0.659,0.428,0.316
'0:01.273',0.147,0.341,0.194,-0.244,-0.024,0.267,0.075,0.731,0.706,0.631,0.413,0.306
'0:01.274',0.144,0.332,0.189,-0.238,-0.022,0.261,0.075,0.700,0.681,0.609,0.400,0.297
'0:01.275',0.141,0.328,0.187,-0.234,-0.024,0.258,0.075,0.669,0.656,0.594,0.388,0.281
'0:01.276',0.142,0.325,0.183,-0.233,-0.021,0.254,0.072,0.644,0.628,0.562,0.369,0.269
'0:01.277',0.141,0.316,0.175,-0.228,-0.017,0.245,0.069,0.619,0.600,0.531,0.356,0.256
'0:01.278',0.127,0.302,0.175,-0.214,-0.024,0.238,0.072,0.594,0.578,0.516,0.341,0.250
'0:01.279',0.119,0.294,0.175,-0.206,-0.028,0.234,0.075,0.569,0.556,0.494,0.331,0.238
'0:01.280',0.112,0.283,0.171,-0.198,-0.029,0.227,0.081,0.547,0.531,0.469,0.322,0.231
'0:01.281',0.109,0.269,0.159,-0.189,-0.025,0.214,0.081,0.525,0.506,0.444,0.306,0.225
'0:01.282',0.106,0.262,0.156,-0.184,-0.025,0.209,0.084,0.497,0.481,0.422,0.294,0.209
'0:01.283',0.106,0.253,0.147,-0.179,-0.021,0.200,0.081,0.469,0.456,0.400,0.275,0.194
'0:01.284',0.102,0.241,0.139,-0.171,-0.019,0.189,0.081,0.444,0.431,0.375,0.259,0.184
'0:01.285',0.094,0.231,0.137,-0.163,-0.022,0.184,0.081,0.419,0.406,0.356,0.244,0.175
'0:01.286',0.087,0.219,0.131,-0.153,-0.022,0.175,0.081,0.403,0.384,0.341,0.231,0.163
'0:01.287',0.078,0.203,0.125,-0.141,-0.024,0.164,0.081,0.381,0.369,0.319,0.212,0.156
'0:01.288',0.073,0.194,0.121,-0.133,-0.024,0.157,0.078,0.359,0.338,0.297,0.197,0.141
'0:01.289',0.069,0.184,0.116,-0.126,-0.024,0.150,0.075,0.338,0.313,0.275,0.181,0.131
'0:01.290',0.062,0.176,0.114,-0.119,-0.026,0.145,0.075,0.313,0.291,0.250,0.172,0.119
'0:01.291',0.059,0.166,0.106,-0.113,-0.024,0.136,0.075,0.294,0.275,0.231,0.162,0.113
'0:01.292',0.053,0.156,0.103,-0.104,-0.025,0.129,0.075,0.269,0.256,0.219,0.150,0.109
'0:01.293',0.047,0.147,0.100,-0.097,-0.027,0.123,0.075,0.250,0.237,0.200,0.138,0.100
'0:01.294',0.047,0.134,0.088,-0.091,-0.021,0.111,0.066,0.231,0.212,0.181,0.125,0.084
'0:01.295',0.047,0.125,0.078,-0.086,-0.016,0.101,0.063,0.213,0.200,0.163,0.113,0.075
'0:01.296',0.042,0.114,0.072,-0.078,-0.015,0.093,0.063,0.200,0.181,0.144,0.100,0.066
'0:01.297',0.037,0.103,0.066,-0.070,-0.014,0.084,0.063,0.181,0.169,0.131,0.094,0.062
'0:01.298',0.028,0.094,0.066,-0.061,-0.019,0.079,0.063,0.172,0.150,0.119,0.084,0.056
'0:01.299',0.022,0.084,0.063,-0.053,-0.021,0.073,0.063,0.156,0.137,0.106,0.081,0.050
'0:01.300',0.014,0.075,0.061,-0.044,-0.023,0.068,0.066,0.141,0.125,0.087,0.069,0.041
'0:01.301',0.009,0.069,0.059,-0.039,-0.025,0.064,0.063,0.125,0.106,0.075,0.063,0.038
'0:01.302',0.012,0.062,0.050,-0.038,-0.019,0.056,0.059,0.106,0.094,0.062,0.047,0.034
'0:01.303',0.012,0.059,0.047,-0.036,-0.017,0.053,0.056,0.094,0.081,0.050,0.038,0.025
'0:01.304',0.009,0.052,0.043,-0.031,-0.017,0.047,0.053,0.084,0.063,0.041,0.028,0.019
'0:01.305',0.012,0.041,0.028,-0.026,-0.008,0.034,0.050,0.075,0.050,0.031,0.025,0.013
'0:01.306',0.002,0.033,0.031,-0.018,-0.015,0.032,0.053,0.062,0.047,0.025,0.019,0.009
'0:01.307',-0.003,0.028,0.031,-0.012,-0.017,0.029,0.050,0.050,0.038,0.013,0.013,0.006
'0:01.308',-0.003,0.025,0.028,-0.011,-0.016,0.026,0.053,0.044,0.025,0.000,0.000,0.000
'0:01.309',-0.006,0.016,0.022,-0.004,-0.014,0.019,0.050,0.031,0.012,-0.006,-0.006,-0.006
'0:01.310',-0.008,0.011,0.019,-0.002,-0.013,0.015,0.050,0.019,0.000,-0.016,-0.016,-0.006
'0:01.311',-0.012,0.003,0.016,0.005,-0.014,0.009,0.050,0.012,-0.013,-0.025,-0.019,-0.012
'0:01.312',-0.012,-0.008,0.005,0.010,-0.009,-0.001,0.050,0.000,-0.022,-0.034,-0.022,-0.022
'0:01.313',-0.012,-0.009,0.003,0.011,-0.008,-0.003,0.050,-0.006,-0.025,-0.038,-0.025,-0.025
'0:01.314',-0.011,-0.009,0.002,0.011,-0.007,-0.004,0.047,-0.016,-0.028,-0.044,-0.028,-0.031
