'Elapsed time','MLII','V1'
'hh:mm:ss.mmm','mV','mV'
'0:40.000',-0.17500000,-0.02000000
'0:40.003',-0.17000000,-0.01500000
'0:40.006',-0.17000000,0.00500000
'0:40.008',-0.14500000,0.02500000
'0:40.011',-0.14500000,0.02000000
'0:40.014',-0.15500000,0.01500000
'0:40.017',-0.17500000,0.00000000
'0:40.019',-0.17000000,0.00500000
'0:40.022',-0.16500000,0.02000000
'0:40.025',-0.15500000,0.03500000
'0:40.028',-0.16000000,0.03000000
'0:40.031',-0.16500000,0.01000000
'0:40.033',-0.18000000,-0.01000000
'0:40.036',-0.18000000,0.00000000
'0:40.039',-0.18000000,0.01000000
'0:40.042',-0.15500000,0.02500000
'0:40.044',-0.17500000,0.02500000
'0:40.047',-0.17500000,0.02000000
'0:40.050',-0.18500000,0.01500000
'0:40.053',-0.20000000,0.02500000
'0:40.056',-0.19000000,0.03000000
'0:40.058',-0.18000000,0.04500000
'0:40.061',-0.17500000,0.04000000
'0:40.064',-0.19000000,0.02500000
'0:40.067',-0.21500000,0.00500000
'0:40.069',-0.22000000,-0.02000000
'0:40.072',-0.20000000,0.00000000
'0:40.075',-0.20500000,0.01000000
'0:40.078',-0.19500000,0.01000000
'0:40.081',-0.21000000,-0.01000000
'0:40.083',-0.21500000,-0.01500000
'0:40.086',-0.22500000,-0.01000000
'0:40.089',-0.22500000,0.00500000
'0:40.092',-0.21000000,0.03000000
'0:40.094',-0.20500000,0.02000000
'0:40.097',-0.22500000,0.01000000
'0:40.100',-0.23000000,0.01000000
'0:40.103',-0.24000000,0.01000000
'0:40.106',-0.23000000,0.01500000
'0:40.108',-0.22500000,0.01500000
'0:40.111',-0.21500000,0.01500000
'0:40.114',-0.23000000,0.00000000
'0:40.117',-0.24500000,-0.02000000
'0:40.119',-0.24500000,-0.01000000
'0:40.122',-0.24000000,0.00000000
'0:40.125',-0.22500000,0.02000000
'0:40.128',-0.22500000,0.01500000
'0:40.131',-0.24500000,0.01500000
'0:40.133',-0.25500000,-0.00500000
'0:40.136',-0.27000000,-0.00500000
'0:40.139',-0.25000000,0.01000000
'0:40.142',-0.25000000,0.02500000
'0:40.144',-0.23500000,0.01500000
'0:40.147',-0.24500000,0.00500000
'0:40.150',-0.25000000,-0.01000000
'0:40.153',-0.26500000,0.01000000
'0:40.156',-0.23500000,0.01500000
'0:40.158',-0.23000000,0.02000000
'0:40.161',-0.23500000,0.01500000
'0:40.164',-0.23000000,0.01000000
'0:40.167',-0.25500000,0.00000000
'0:40.169',-0.27500000,-0.00500000
'0:40.172',-0.26500000,0.01000000
'0:40.175',-0.25000000,0.01500000
'0:40.178',-0.24500000,0.00000000
'0:40.181',-0.25000000,0.00000000
'0:40.183',-0.25500000,0.00000000
'0:40.186',-0.25500000,0.00500000
'0:40.189',-0.25500000,0.01500000
'0:40.192',-0.24500000,0.02000000
'0:40.194',-0.24500000,0.01000000
'0:40.197',-0.24500000,-0.02000000
'0:40.200',-0.25500000,-0.01500000
'0:40.203',-0.25500000,-0.00500000
'0:40.206',-0.24500000,-0.00500000
'0:40.208',-0.23000000,0.01000000
'0:40.211',-0.23000000,-0.00500000
'0:40.214',-0.24500000,-0.00500000
'0:40.217',-0.27500000,-0.01000000
'0:40.219',-0.26000000,-0.00500000
'0:40.222',-0.25000000,0.01000000
'0:40.225',-0.23000000,0.01500000
'0:40.228',-0.23500000,0.01000000
'0:40.231',-0.23000000,0.00000000
'0:40.233',-0.25500000,-0.00500000
'0:40.236',-0.26500000,-0.00500000
'0:40.239',-0.25000000,0.01000000
'0:40.242',-0.24000000,0.02000000
'0:40.244',-0.23000000,0.02000000
'0:40.247',-0.24500000,0.00000000
'0:40.250',-0.25000000,-0.00500000
'0:40.253',-0.25000000,-0.00500000
'0:40.256',-0.23500000,0.01000000
'0:40.258',-0.22000000,0.01500000
'0:40.261',-0.23000000,0.02500000
'0:40.264',-0.23000000,0.01000000
'0:40.267',-0.24500000,-0.01000000
'0:40.269',-0.25000000,-0.01000000
'0:40.272',-0.22500000,0.00500000
'0:40.275',-0.22000000,0.03000000
'0:40.278',-0.21500000,0.02500000
'0:40.281',-0.22500000,0.01500000
'0:40.283',-0.22500000,-0.00500000
'0:40.286',-0.23500000,-0.01000000
'0:40.289',-0.22000000,0.00000000
'0:40.292',-0.19500000,0.01000000
'0:40.294',-0.19000000,-0.00500000
'0:40.297',-0.18000000,0.00000000
'0:40.300',-0.19500000,-0.01500000
'0:40.303',-0.19000000,-0.00500000
'0:40.306',-0.17000000,0.01000000
'0:40.308',-0.15000000,0.02500000
'0:40.311',-0.15500000,0.03500000
'0:40.314',-0.14000000,0.04500000
'0:40.317',-0.15000000,0.06000000
'0:40.319',-0.12500000,0.10000000
'0:40.322',-0.11000000,0.13000000
'0:40.325',-0.07500000,0.14000000
'0:40.328',-0.06500000,0.12500000
'0:40.331',-0.05500000,0.10000000
'0:40.333',-0.05500000,0.10000000
'0:40.336',-0.03000000,0.10500000
'0:40.339',-0.00500000,0.11500000
'0:40.342',0.02500000,0.11500000
'0:40.344',0.03500000,0.11000000
'0:40.347',0.03000000,0.09500000
'0:40.350',0.02500000,0.07000000
'0:40.353',0.01000000,0.07000000
'0:40.356',0.03000000,0.05500000
'0:40.358',0.02000000,0.03000000
'0:40.361',0.01500000,-0.00500000
'0:40.364',-0.02000000,-0.02500000
'0:40.367',-0.05000000,-0.03000000
'0:40.369',-0.07500000,0.00000000
'0:40.372',-0.08000000,0.03000000
'0:40.375',-0.07500000,0.05500000
'0:40.378',-0.09000000,0.03500000
'0:40.381',-0.11500000,0.02000000
'0:40.383',-0.14000000,0.00000000
'0:40.386',-0.15500000,-0.00500000
'0:40.389',-0.14500000,-0.02500000
'0:40.392',-0.14000000,-0.00500000
'0:40.394',-0.13500000,-0.02500000
'0:40.397',-0.14500000,-0.03000000
'0:40.400',-0.16500000,-0.03500000
'0:40.403',-0.14500000,-0.03000000
'0:40.406',-0.14500000,-0.03500000
'0:40.408',-0.12500000,-0.03000000
'0:40.411',-0.11000000,-0.01500000
'0:40.414',-0.12000000,-0.01500000
'0:40.417',-0.14500000,-0.03500000
'0:40.419',-0.12000000,-0.02000000
'0:40.422',-0.11000000,-0.01500000
'0:40.425',-0.09000000,-0.02500000
'0:40.428',-0.09000000,-0.04500000
'0:40.431',-0.07500000,-0.09000000
'0:40.433',-0.04500000,-0.12000000
'0:40.436',0.05000000,-0.10000000
'0:40.439',0.21000000,-0.07000000
'0:40.442',0.40000000,-0.07500000
'0:40.444',0.61000000,-0.08500000
'0:40.447',0.78500000,-0.07000000
'0:40.450',0.90500000,-0.00500000
'0:40.453',0.98000000,0.08500000
'0:40.456',1.02000000,0.16500000
'0:40.458',1.02500000,0.23000000
'0:40.461',0.97500000,0.28000000
'0:40.464',0.86000000,0.31500000
'0:40.467',0.68000000,0.30000000
'0:40.469',0.43000000,0.26500000
'0:40.472',0.19000000,0.22000000
'0:40.475',-0.00500000,0.11500000
'0:40.478',-0.10000000,0.00000000
'0:40.481',-0.11000000,-0.12500000
'0:40.483',-0.12000000,-0.21500000
'0:40.486',-0.14000000,-0.26000000
'0:40.489',-0.15000000,-0.24500000
'0:40.492',-0.15500000,-0.20000000
'0:40.494',-0.15500000,-0.16000000
'0:40.497',-0.17000000,-0.12000000
'0:40.500',-0.20000000,-0.10000000
'0:40.503',-0.21000000,-0.07000000
'0:40.506',-0.21500000,-0.02500000
'0:40.508',-0.21500000,-0.01000000
'0:40.511',-0.23500000,-0.01000000
'0:40.514',-0.25500000,-0.01500000
'0:40.517',-0.28000000,-0.03500000
'0:40.519',-0.29000000,-0.04000000
'0:40.522',-0.28000000,-0.02500000
'0:40.525',-0.27000000,-0.01500000
'0:40.528',-0.26500000,-0.02000000
'0:40.531',-0.27000000,-0.03500000
'0:40.533',-0.29000000,-0.03500000
'0:40.536',-0.30500000,-0.02000000
'0:40.539',-0.29000000,0.00000000
'0:40.542',-0.28500000,0.01000000
'0:40.544',-0.27000000,-0.00500000
'0:40.547',-0.29000000,-0.02000000
'0:40.550',-0.30500000,-0.03000000
'0:40.553',-0.29500000,-0.02000000
'0:40.556',-0.30000000,0.00000000
'0:40.558',-0.27000000,0.02500000
'0:40.561',-0.28000000,0.01500000
'0:40.564',-0.28000000,-0.00500000
'0:40.567',-0.29500000,-0.01000000
'0:40.569',-0.29500000,-0.00500000
'0:40.572',-0.27000000,-0.01000000
'0:40.575',-0.28500000,0.01000000
'0:40.578',-0.27000000,0.00500000
'0:40.581',-0.27500000,-0.00500000
'0:40.583',-0.29500000,0.00000000
'0:40.586',-0.29500000,0.00000000
'0:40.589',-0.28500000,0.02500000
'0:40.592',-0.26000000,0.04500000
'0:40.594',-0.26000000,0.02500000
'0:40.597',-0.27500000,0.02000000
'0:40.600',-0.27500000,0.00000000
'0:40.603',-0.28500000,0.00000000
'0:40.606',-0.27000000,0.01000000
'0:40.608',-0.25500000,0.02000000
'0:40.611',-0.23500000,0.00000000
'0:40.614',-0.25000000,-0.01000000
'0:40.617',-0.27500000,-0.02500000
'0:40.619',-0.26000000,-0.01500000
'0:40.622',-0.24500000,0.00000000
'0:40.625',-0.25000000,-0.01000000
'0:40.628',-0.21500000,-0.01000000
'0:40.631',-0.21500000,-0.01500000
'0:40.633',-0.22000000,-0.02000000
'0:40.636',-0.22500000,-0.00500000
'0:40.639',-0.19500000,0.01500000
'0:40.642',-0.19000000,0.02000000
'0:40.644',-0.18000000,0.02500000
'0:40.647',-0.18000000,0.00000000
'0:40.650',-0.19000000,-0.01000000
'0:40.653',-0.19000000,-0.00500000
'0:40.656',-0.16500000,0.01000000
'0:40.658',-0.14500000,0.03000000
'0:40.661',-0.13000000,0.01500000
'0:40.664',-0.13000000,0.00000000
'0:40.667',-0.13500000,-0.02500000
'0:40.669',-0.12500000,-0.01500000
'0:40.672',-0.11500000,0.00000000
'0:40.675',-0.10000000,0.01000000
'0:40.678',-0.07500000,0.00500000
'0:40.681',-0.06500000,-0.01000000
'0:40.683',-0.08500000,-0.00500000
'0:40.686',-0.07500000,-0.01500000
'0:40.689',-0.05500000,-0.01000000
'0:40.692',-0.02500000,-0.00500000
'0:40.694',-0.02000000,-0.01000000
'0:40.697',-0.02000000,-0.02000000
'0:40.700',-0.02500000,-0.03500000
'0:40.703',-0.01000000,-0.04500000
'0:40.706',0.01500000,-0.02000000
'0:40.708',0.03000000,-0.02000000
'0:40.711',0.04500000,-0.02500000
'0:40.714',0.05000000,-0.04000000
'0:40.717',0.04500000,-0.05500000
'0:40.719',0.03500000,-0.04500000
'0:40.722',0.05500000,-0.03500000
'0:40.725',0.08500000,-0.02500000
'0:40.728',0.10000000,-0.03000000
'0:40.731',0.09500000,-0.05000000
'0:40.733',0.08500000,-0.05000000
'0:40.736',0.09000000,-0.05000000
'0:40.739',0.09500000,-0.04500000
'0:40.742',0.11500000,-0.03000000
'0:40.744',0.11000000,-0.04500000
'0:40.747',0.09500000,-0.05500000
'0:40.750',0.08500000,-0.06500000
'0:40.753',0.08500000,-0.06500000
'0:40.756',0.08500000,-0.05000000
'0:40.758',0.07500000,-0.03500000
'0:40.761',0.09500000,-0.03500000
'0:40.764',0.08000000,-0.04000000
'0:40.767',0.06000000,-0.04000000
'0:40.769',0.04500000,-0.04000000
'0:40.772',0.03500000,-0.01000000
'0:40.775',0.05000000,0.00000000
'0:40.778',0.05000000,-0.02000000
'0:40.781',0.02000000,-0.03000000
'0:40.783',0.00000000,-0.03000000
'0:40.786',-0.01500000,-0.02500000
'0:40.789',-0.02500000,-0.01000000
'0:40.792',-0.01500000,-0.00500000
'0:40.794',-0.02500000,-0.00500000
'0:40.797',-0.06500000,-0.03000000
'0:40.800',-0.09000000,-0.03000000
'0:40.803',-0.10000000,-0.01500000
'0:40.806',-0.09500000,-0.01000000
'0:40.808',-0.08500000,0.00000000
'0:40.811',-0.10000000,0.00500000
'0:40.814',-0.12000000,-0.01000000
'0:40.817',-0.13000000,-0.02500000
'0:40.819',-0.15000000,-0.00500000
'0:40.822',-0.15000000,0.00000000
'0:40.825',-0.15000000,0.01500000
'0:40.828',-0.14500000,0.03000000
'0:40.831',-0.15000000,0.01500000
'0:40.833',-0.17000000,-0.01000000
'0:40.836',-0.17500000,-0.00500000
'0:40.839',-0.18500000,0.01000000
'0:40.842',-0.16000000,0.00500000
'0:40.844',-0.17000000,0.00500000
'0:40.847',-0.18500000,-0.01000000
'0:40.850',-0.20500000,-0.01000000
'0:40.853',-0.20000000,0.00000000
'0:40.856',-0.19000000,0.01500000
'0:40.858',-0.19000000,0.03000000
'0:40.861',-0.19000000,0.04000000
'0:40.864',-0.19000000,0.02000000
'0:40.867',-0.21000000,0.02000000
'0:40.869',-0.20000000,0.02000000
'0:40.872',-0.18000000,0.01500000
'0:40.875',-0.18000000,0.03000000
'0:40.878',-0.18000000,0.01500000
'0:40.881',-0.18000000,0.02000000
'0:40.883',-0.19000000,0.01000000
'0:40.886',-0.19500000,0.00500000
'0:40.889',-0.19000000,0.00000000
'0:40.892',-0.16000000,0.01000000
'0:40.894',-0.15500000,0.01000000
'0:40.897',-0.15000000,-0.01000000
'0:40.900',-0.16000000,-0.00500000
'0:40.903',-0.16500000,0.01500000
'0:40.906',-0.14500000,0.04000000
'0:40.908',-0.16000000,0.05500000
'0:40.911',-0.15000000,0.03500000
'0:40.914',-0.16000000,0.01000000
'0:40.917',-0.17000000,-0.01500000
'0:40.919',-0.15500000,-0.01000000
'0:40.922',-0.14000000,0.00500000
'0:40.925',-0.13000000,0.02000000
'0:40.928',-0.13500000,0.01500000
'0:40.931',-0.14500000,-0.00500000
'0:40.933',-0.14500000,-0.00500000
'0:40.936',-0.12500000,0.00000000
'0:40.939',-0.12000000,0.01000000
'0:40.942',-0.10000000,0.02500000
'0:40.944',-0.10000000,0.03000000
'0:40.947',-0.09000000,0.02500000
'0:40.950',-0.11000000,0.01500000
'0:40.953',-0.11000000,0.02000000
'0:40.956',-0.10000000,0.03000000
'0:40.958',-0.08500000,0.05000000
'0:40.961',-0.08500000,0.02500000
'0:40.964',-0.09000000,0.00500000
'0:40.967',-0.10500000,-0.02500000
'0:40.969',-0.11000000,-0.02500000
'0:40.972',-0.09500000,-0.01000000
'0:40.975',-0.08000000,0.01000000
'0:40.978',-0.08500000,0.01000000
'0:40.981',-0.09000000,0.00000000
'0:40.983',-0.10500000,-0.00500000
'0:40.986',-0.11500000,0.01000000
'0:40.989',-0.10500000,0.01500000
'0:40.992',-0.09000000,0.02500000
'0:40.994',-0.09000000,0.01500000
'0:40.997',-0.09500000,0.01000000
'0:41.000',-0.11500000,-0.01000000
'0:41.003',-0.12000000,0.00000000
'0:41.006',-0.11500000,0.01000000
'0:41.008',-0.10000000,0.03000000
'0:41.011',-0.11000000,0.02000000
'0:41.014',-0.13000000,0.00500000
'0:41.017',-0.14500000,0.00500000
'0:41.019',-0.14500000,0.00000000
'0:41.022',-0.14500000,0.01500000
'0:41.025',-0.12500000,0.02500000
'0:41.028',-0.13000000,0.01500000
'0:41.031',-0.13500000,-0.00500000
'0:41.033',-0.15000000,0.00000000
'0:41.036',-0.15500000,0.01500000
'0:41.039',-0.15000000,0.02000000
'0:41.042',-0.14000000,0.03500000
'0:41.044',-0.13500000,0.01000000
'0:41.047',-0.15000000,0.00500000
'0:41.050',-0.17000000,0.00000000
'0:41.053',-0.18000000,0.00000000
'0:41.056',-0.17000000,0.01500000
'0:41.058',-0.15000000,0.02500000
'0:41.061',-0.16000000,0.02500000
'0:41.064',-0.17500000,0.02500000
'0:41.067',-0.19000000,0.01500000
'0:41.069',-0.20500000,0.01000000
'0:41.072',-0.18000000,0.00000000
'0:41.075',-0.17000000,0.00000000
'0:41.078',-0.17500000,-0.01500000
'0:41.081',-0.17000000,-0.02000000
'0:41.083',-0.19500000,-0.01500000
'0:41.086',-0.20500000,-0.00500000
'0:41.089',-0.20500000,-0.00500000
'0:41.092',-0.19500000,0.02000000
'0:41.094',-0.17500000,0.01000000
'0:41.097',-0.18000000,-0.01000000
'0:41.100',-0.21000000,-0.02500000
'0:41.103',-0.21000000,-0.01000000
'0:41.106',-0.20000000,0.00000000
'0:41.108',-0.18000000,0.00500000
'0:41.111',-0.18000000,0.00000000
'0:41.114',-0.19500000,-0.01000000
'0:41.117',-0.21000000,-0.01500000
'0:41.119',-0.21000000,0.00000000
'0:41.122',-0.21000000,0.01000000
'0:41.125',-0.20500000,0.01500000
'0:41.128',-0.19000000,0.00500000
'0:41.131',-0.19500000,0.00000000
'0:41.133',-0.21500000,0.00000000
'0:41.136',-0.23500000,0.00500000
'0:41.139',-0.22000000,0.01000000
'0:41.142',-0.20500000,0.02500000
'0:41.144',-0.20500000,0.01500000
'0:41.147',-0.19500000,0.01500000
'0:41.150',-0.23000000,0.00500000
'0:41.153',-0.23000000,0.00500000
'0:41.156',-0.23000000,0.00500000
'0:41.158',-0.21500000,0.02500000
'0:41.161',-0.22000000,0.02500000
'0:41.164',-0.21000000,0.01000000
'0:41.167',-0.22500000,0.00500000
'0:41.169',-0.23000000,0.00000000
'0:41.172',-0.22000000,0.03500000
'0:41.175',-0.21000000,0.03500000
'0:41.178',-0.21500000,0.02000000
'0:41.181',-0.21500000,0.01500000
'0:41.183',-0.23000000,0.00500000
'0:41.186',-0.22500000,0.00000000
'0:41.189',-0.22500000,0.01500000
'0:41.192',-0.21000000,0.03000000
'0:41.194',-0.20500000,0.03500000
'0:41.197',-0.20500000,0.02000000
'0:41.200',-0.24000000,0.00500000
'0:41.203',-0.24000000,0.01000000
'0:41.206',-0.23000000,0.01500000
'0:41.208',-0.21500000,0.03000000
'0:41.211',-0.21500000,0.03500000
'0:41.214',-0.22500000,0.02000000
'0:41.217',-0.22500000,0.02000000
'0:41.219',-0.22000000,0.01500000
'0:41.222',-0.20500000,0.01500000
'0:41.225',-0.18500000,0.03000000
'0:41.228',-0.18000000,0.03000000
'0:41.231',-0.19000000,0.03500000
'0:41.233',-0.19500000,0.01000000
'0:41.236',-0.18500000,0.01000000
'0:41.239',-0.19500000,0.01500000
'0:41.242',-0.18000000,0.03000000
'0:41.244',-0.15500000,0.02500000
'0:41.247',-0.15500000,0.03000000
'0:41.250',-0.16500000,0.02500000
'0:41.253',-0.14500000,0.04000000
'0:41.256',-0.13000000,0.07000000
'0:41.258',-0.10500000,0.11000000
'0:41.261',-0.10000000,0.12000000
'0:41.264',-0.09000000,0.12000000
'0:41.267',-0.11000000,0.11000000
'0:41.269',-0.07500000,0.12000000
'0:41.272',-0.06000000,0.13000000
'0:41.275',-0.02000000,0.13000000
'0:41.278',0.00000000,0.14000000
'0:41.281',0.01000000,0.14500000
'0:41.283',0.00500000,0.12000000
'0:41.286',0.01000000,0.13000000
'0:41.289',0.02500000,0.13000000
'0:41.292',0.03500000,0.12000000
'0:41.294',0.03000000,0.08500000
'0:41.297',0.02500000,0.06000000
'0:41.300',0.00500000,0.03500000
'0:41.303',-0.01500000,0.01000000
'0:41.306',-0.03000000,0.00000000
'0:41.308',-0.04000000,0.00000000
'0:41.311',-0.05500000,0.00000000
'0:41.314',-0.07000000,-0.00500000
'0:41.317',-0.09500000,-0.01500000
'0:41.319',-0.12000000,-0.00500000
'0:41.322',-0.13000000,0.01000000
'0:41.325',-0.13500000,0.02500000
'0:41.328',-0.13500000,0.01000000
'0:41.331',-0.15500000,0.00500000
'0:41.333',-0.17000000,-0.01000000
'0:41.336',-0.17500000,-0.00500000
'0:41.339',-0.15500000,0.00500000
'0:41.342',-0.14500000,0.02000000
'0:41.344',-0.14000000,0.02000000
'0:41.347',-0.13500000,0.00000000
'0:41.350',-0.15000000,-0.01000000
'0:41.353',-0.14000000,0.00000000
'0:41.356',-0.13500000,0.02500000
'0:41.358',-0.11000000,0.02500000
'0:41.361',-0.10000000,0.01000000
'0:41.364',-0.10500000,-0.02000000
'0:41.367',-0.12000000,-0.05500000
'0:41.369',-0.10500000,-0.05500000
'0:41.372',-0.06000000,-0.08000000
'0:41.375',0.02000000,-0.05500000
'0:41.378',0.12500000,-0.05000000
'0:41.381',0.24500000,-0.05500000
'0:41.383',0.42500000,-0.05000000
'0:41.386',0.61000000,-0.04500000
'0:41.389',0.80000000,0.02500000
'0:41.392',0.92000000,0.10500000
'0:41.394',0.97000000,0.16500000
'0:41.397',0.98000000,0.18500000
'0:41.400',0.94000000,0.22500000
'0:41.403',0.88000000,0.27000000
'0:41.406',0.77500000,0.29500000
'0:41.408',0.58000000,0.28000000
'0:41.411',0.34500000,0.21000000
'0:41.414',0.08500000,0.14000000
'0:41.417',-0.10500000,0.01500000
'0:41.419',-0.14500000,-0.08500000
'0:41.422',-0.12500000,-0.15000000
'0:41.425',-0.11500000,-0.18500000
'0:41.428',-0.13000000,-0.23000000
'0:41.431',-0.16000000,-0.22500000
'0:41.433',-0.19000000,-0.18500000
'0:41.436',-0.19500000,-0.12000000
'0:41.439',-0.20500000,-0.08000000
'0:41.442',-0.20500000,-0.03000000
'0:41.444',-0.22000000,-0.02000000
'0:41.447',-0.23000000,-0.00500000
'0:41.450',-0.25500000,-0.03500000
'0:41.453',-0.28000000,-0.03000000
'0:41.456',-0.28500000,-0.03000000
'0:41.458',-0.26500000,-0.01500000
'0:41.461',-0.27500000,-0.01000000
'0:41.464',-0.28000000,-0.02000000
'0:41.467',-0.30500000,-0.02500000
'0:41.469',-0.31500000,0.00000000
'0:41.472',-0.31000000,0.02000000
'0:41.475',-0.29500000,0.01000000
'0:41.478',-0.29500000,0.00500000
'0:41.481',-0.30500000,-0.02500000
'0:41.483',-0.31500000,-0.01500000
'0:41.486',-0.33000000,0.00000000
'0:41.489',-0.31000000,-0.00500000
'0:41.492',-0.29500000,0.02000000
'0:41.494',-0.30000000,0.01500000
'0:41.497',-0.30500000,0.01000000
'0:41.500',-0.33000000,-0.01500000
'0:41.503',-0.34000000,-0.00500000
'0:41.506',-0.31500000,0.02000000
'0:41.508',-0.30500000,0.04000000
'0:41.511',-0.30000000,0.03000000
'0:41.514',-0.31500000,0.00500000
'0:41.517',-0.31000000,-0.00500000
'0:41.519',-0.31500000,-0.00500000
'0:41.522',-0.30500000,0.00500000
'0:41.525',-0.28500000,0.02500000
'0:41.528',-0.29000000,0.01000000
'0:41.531',-0.28500000,0.00000000
'0:41.533',-0.31000000,-0.01000000
'0:41.536',-0.31000000,-0.00500000
'0:41.539',-0.28500000,0.02000000
'0:41.542',-0.27000000,0.02500000
'0:41.544',-0.28500000,0.02000000
'0:41.547',-0.27000000,-0.01500000
'0:41.550',-0.28500000,-0.03000000
'0:41.553',-0.28000000,-0.02000000
'0:41.556',-0.26000000,0.00000000
'0:41.558',-0.24000000,0.01000000
'0:41.561',-0.23500000,-0.00500000
'0:41.564',-0.24000000,-0.00500000
'0:41.567',-0.25000000,-0.03500000
'0:41.569',-0.25000000,-0.01500000
'0:41.572',-0.23500000,0.01000000
'0:41.575',-0.22000000,0.01500000
'0:41.578',-0.20500000,0.01500000
'0:41.581',-0.20000000,-0.00500000
'0:41.583',-0.21000000,-0.01000000
'0:41.586',-0.20000000,-0.01000000
'0:41.589',-0.19000000,-0.01000000
'0:41.592',-0.16500000,0.01500000
'0:41.594',-0.17000000,0.01000000
'0:41.597',-0.17000000,0.01000000
'0:41.600',-0.17500000,-0.01000000
'0:41.603',-0.17000000,-0.01500000
'0:41.606',-0.14000000,-0.00500000
'0:41.608',-0.12500000,0.02500000
'0:41.611',-0.09500000,0.01500000
'0:41.614',-0.09000000,0.00000000
'0:41.617',-0.10000000,-0.02500000
'0:41.619',-0.09000000,-0.01500000
'0:41.622',-0.07500000,0.00000000
'0:41.625',-0.04500000,-0.00500000
'0:41.628',-0.02500000,-0.01500000
'0:41.631',-0.04000000,-0.03000000
'0:41.633',-0.04000000,-0.04000000
'0:41.636',-0.01000000,-0.02500000
'0:41.639',0.01000000,-0.02000000
'0:41.642',0.04000000,-0.01500000
'0:41.644',0.04000000,0.00500000
'0:41.647',0.05500000,-0.04000000
'0:41.650',0.05500000,-0.04000000
'0:41.653',0.05500000,-0.04000000
'0:41.656',0.06500000,-0.03000000
'0:41.658',0.09000000,-0.02500000
'0:41.661',0.10500000,-0.02500000
'0:41.664',0.10000000,-0.02500000
'0:41.667',0.09500000,-0.05500000
'0:41.669',0.09500000,-0.03500000
'0:41.672',0.11000000,-0.03500000
'0:41.675',0.12000000,-0.02000000
'0:41.678',0.13000000,-0.03000000
'0:41.681',0.11500000,-0.03500000
'0:41.683',0.10000000,-0.04000000
'0:41.686',0.08500000,-0.03000000
'0:41.689',0.08500000,-0.01500000
'0:41.692',0.09500000,-0.00500000
'0:41.694',0.09500000,-0.00500000
'0:41.697',0.06500000,-0.01500000
'0:41.700',0.05000000,-0.03500000
'0:41.703',0.03500000,-0.02000000
'0:41.706',0.04000000,-0.01000000
'0:41.708',0.04000000,0.00500000
'0:41.711',0.03000000,-0.00500000
'0:41.714',-0.01000000,-0.01500000
'0:41.717',-0.02500000,-0.03500000
'0:41.719',-0.03500000,-0.03000000
'0:41.722',-0.04500000,-0.01500000
'0:41.725',-0.03500000,-0.00500000
'0:41.728',-0.05500000,0.00000000
'0:41.731',-0.07500000,-0.00500000
'0:41.733',-0.10500000,-0.02500000
'0:41.736',-0.11500000,-0.03500000
'0:41.739',-0.12500000,-0.02500000
'0:41.742',-0.12000000,-0.01500000
'0:41.744',-0.13000000,-0.01500000
'0:41.747',-0.15500000,-0.01500000
'0:41.750',-0.18500000,-0.02000000
'0:41.753',-0.19500000,-0.00500000
'0:41.756',-0.19000000,0.01000000
'0:41.758',-0.18500000,0.01500000
'0:41.761',-0.18000000,0.00000000
'0:41.764',-0.20000000,-0.02000000
'0:41.767',-0.21000000,-0.01500000
'0:41.769',-0.22500000,-0.02000000
'0:41.772',-0.22500000,-0.00500000
'0:41.775',-0.22000000,0.00000000
'0:41.778',-0.22500000,-0.00500000
'0:41.781',-0.23000000,-0.02000000
'0:41.783',-0.24000000,-0.02500000
'0:41.786',-0.25000000,-0.01500000
'0:41.789',-0.24500000,-0.01000000
'0:41.792',-0.24500000,0.01500000
'0:41.794',-0.22500000,0.01500000
'0:41.797',-0.24500000,0.00500000
'0:41.800',-0.25500000,0.00500000
'0:41.803',-0.26500000,0.00000000
'0:41.806',-0.25500000,0.01500000
'0:41.808',-0.24500000,0.01500000
'0:41.811',-0.23500000,0.01000000
'0:41.814',-0.26000000,-0.00500000
'0:41.817',-0.25000000,-0.00500000
'0:41.819',-0.26000000,-0.01000000
'0:41.822',-0.25500000,0.01500000
'0:41.825',-0.23500000,0.02500000
'0:41.828',-0.22000000,0.02000000
'0:41.831',-0.22500000,0.00500000
'0:41.833',-0.23000000,-0.01000000
'0:41.836',-0.23500000,0.00500000
'0:41.839',-0.24000000,0.01000000
'0:41.842',-0.21500000,0.02500000
'0:41.844',-0.21000000,0.03000000
'0:41.847',-0.22000000,0.01500000
'0:41.850',-0.22000000,0.00000000
'0:41.853',-0.23000000,0.01000000
'0:41.856',-0.21500000,0.00000000
'0:41.858',-0.20000000,0.02000000
'0:41.861',-0.20000000,0.01500000
'0:41.864',-0.19500000,0.00000000
'0:41.867',-0.20000000,0.00500000
'0:41.869',-0.21000000,0.00500000
'0:41.872',-0.19000000,0.01500000
'0:41.875',-0.18000000,0.03000000
'0:41.878',-0.17500000,0.03000000
'0:41.881',-0.18000000,0.02000000
'0:41.883',-0.19000000,0.01500000
'0:41.886',-0.18500000,0.02500000
'0:41.889',-0.17500000,0.03000000
'0:41.892',-0.18000000,0.02500000
'0:41.894',-0.16500000,0.01000000
'0:41.897',-0.16500000,-0.01000000
'0:41.900',-0.18500000,-0.01000000
'0:41.903',-0.19500000,-0.01000000
'0:41.906',-0.17500000,0.00500000
'0:41.908',-0.16500000,0.02000000
'0:41.911',-0.16000000,0.02000000
'0:41.914',-0.17500000,0.01500000
'0:41.917',-0.19500000,0.00500000
'0:41.919',-0.18500000,0.02000000
'0:41.922',-0.17500000,0.03000000
'0:41.925',-0.16500000,0.03000000
'0:41.928',-0.17000000,0.00500000
'0:41.931',-0.18500000,-0.02000000
'0:41.933',-0.20500000,-0.02000000
'0:41.936',-0.20500000,-0.02500000
'0:41.939',-0.19500000,-0.02000000
'0:41.942',-0.18500000,-0.00500000
'0:41.944',-0.17000000,-0.00500000
'0:41.947',-0.19000000,-0.01000000
'0:41.950',-0.20500000,-0.02500000
'0:41.953',-0.20500000,-0.01000000
'0:41.956',-0.20000000,-0.00500000
'0:41.958',-0.19000000,-0.00500000
'0:41.961',-0.19000000,-0.01000000
'0:41.964',-0.20000000,-0.02000000
'0:41.967',-0.21000000,-0.03500000
'0:41.969',-0.21000000,-0.02000000
'0:41.972',-0.21000000,-0.00500000
'0:41.975',-0.20500000,0.01500000
'0:41.978',-0.21500000,0.01000000
'0:41.981',-0.20500000,-0.00500000
'0:41.983',-0.22500000,-0.01500000
'0:41.986',-0.22000000,-0.01500000
'0:41.989',-0.22500000,0.00000000
'0:41.992',-0.21500000,0.00000000
'0:41.994',-0.21500000,0.00000000
'0:41.997',-0.22500000,-0.01500000
'0:42.000',-0.23500000,-0.03000000
'0:42.003',-0.24000000,-0.04000000
'0:42.006',-0.25000000,-0.01500000
'0:42.008',-0.23000000,0.00000000
'0:42.011',-0.22500000,-0.00500000
'0:42.014',-0.24000000,-0.01500000
'0:42.017',-0.25500000,-0.02000000
'0:42.019',-0.26500000,0.00000000
'0:42.022',-0.25000000,-0.00500000
'0:42.025',-0.23500000,0.00500000
'0:42.028',-0.23500000,0.01000000
'0:42.031',-0.24500000,0.00000000
'0:42.033',-0.26000000,-0.00500000
'0:42.036',-0.27000000,-0.00500000
'0:42.039',-0.26500000,-0.00500000
'0:42.042',-0.25000000,0.00500000
'0:42.044',-0.24500000,-0.00500000
'0:42.047',-0.25500000,-0.02000000
'0:42.050',-0.26500000,-0.02500000
'0:42.053',-0.28000000,-0.02000000
'0:42.056',-0.27000000,0.00000000
'0:42.058',-0.24500000,0.00000000
'0:42.061',-0.25500000,-0.01000000
'0:42.064',-0.24500000,-0.02500000
'0:42.067',-0.26500000,-0.03500000
'0:42.069',-0.28000000,-0.02500000
'0:42.072',-0.27500000,-0.01000000
'0:42.075',-0.25500000,0.00000000
'0:42.078',-0.24000000,0.00000000
'0:42.081',-0.24500000,-0.02500000
'0:42.083',-0.26500000,-0.04000000
'0:42.086',-0.26500000,-0.03000000
'0:42.089',-0.26000000,-0.00500000
'0:42.092',-0.25000000,-0.00500000
'0:42.094',-0.24500000,-0.01000000
'0:42.097',-0.24500000,-0.01500000
'0:42.100',-0.25500000,-0.02000000
'0:42.103',-0.26500000,-0.01500000
'0:42.106',-0.25000000,0.00000000
'0:42.108',-0.24500000,0.00500000
'0:42.111',-0.23500000,-0.00500000
'0:42.114',-0.24500000,-0.01500000
'0:42.117',-0.25500000,-0.02000000
'0:42.119',-0.27000000,-0.01500000
'0:42.122',-0.24500000,-0.00500000
'0:42.125',-0.23500000,-0.00500000
'0:42.128',-0.24000000,-0.00500000
'0:42.131',-0.24000000,-0.01500000
'0:42.133',-0.25500000,-0.01000000
'0:42.136',-0.25500000,-0.00500000
'0:42.139',-0.24500000,0.01500000
'0:42.142',-0.22500000,0.02500000
'0:42.144',-0.20500000,0.03000000
'0:42.147',-0.20500000,0.01000000
'0:42.150',-0.23000000,0.01000000
'0:42.153',-0.23500000,-0.01000000
'0:42.156',-0.21500000,-0.01500000
'0:42.158',-0.19000000,-0.01500000
'0:42.161',-0.18500000,-0.01000000
'0:42.164',-0.17500000,-0.01500000
'0:42.167',-0.17500000,-0.01000000
'0:42.169',-0.17000000,0.01000000
'0:42.172',-0.14500000,0.06000000
'0:42.175',-0.12500000,0.07500000
'0:42.178',-0.11000000,0.10000000
'0:42.181',-0.12000000,0.07500000
'0:42.183',-0.09000000,0.08000000
'0:42.186',-0.10500000,0.08500000
'0:42.189',-0.07000000,0.11000000
'0:42.192',-0.05000000,0.13000000
'0:42.194',-0.02500000,0.12000000
'0:42.197',-0.03500000,0.10500000
'0:42.200',-0.04000000,0.08500000
'0:42.203',-0.02500000,0.07500000
'0:42.206',0.00000000,0.07000000
'0:42.208',0.00500000,0.06500000
'0:42.211',-0.00500000,0.03000000
'0:42.214',-0.02500000,0.00500000
'0:42.217',-0.06500000,-0.04000000
'0:42.219',-0.09000000,-0.03500000
'0:42.222',-0.08500000,-0.02000000
'0:42.225',-0.09000000,0.00500000
'0:42.228',-0.12500000,-0.00500000
'0:42.231',-0.12000000,-0.00500000
'0:42.233',-0.14500000,-0.01000000
'0:42.236',-0.14500000,0.00000000
'0:42.239',-0.15500000,0.02500000
'0:42.242',-0.15500000,0.04000000
'0:42.244',-0.15500000,0.01500000
'0:42.247',-0.16000000,0.01000000
'0:42.250',-0.17500000,-0.00500000
'0:42.253',-0.18000000,0.01000000
'0:42.256',-0.17000000,0.00000000
'0:42.258',-0.15500000,0.02500000
'0:42.261',-0.14500000,0.00500000
'0:42.264',-0.16500000,-0.00500000
'0:42.267',-0.15500000,-0.02500000
'0:42.269',-0.15500000,-0.01500000
'0:42.272',-0.12500000,0.00000000
'0:42.275',-0.10500000,0.01500000
'0:42.278',-0.09000000,-0.01000000
'0:42.281',-0.08000000,-0.05500000
'0:42.283',-0.09000000,-0.11500000
'0:42.286',-0.03500000,-0.11500000
'0:42.289',0.05000000,-0.09000000
'0:42.292',0.19000000,-0.07500000
'0:42.294',0.36500000,-0.08500000
'0:42.297',0.55500000,-0.09000000
'0:42.300',0.70500000,-0.07000000
'0:42.303',0.82000000,0.00500000
'0:42.306',0.89500000,0.08500000
'0:42.308',0.92000000,0.15000000
'0:42.311',0.90500000,0.19500000
'0:42.314',0.83000000,0.23500000
'0:42.317',0.68500000,0.23000000
'0:42.319',0.49000000,0.18500000
'0:42.322',0.25500000,0.14000000
'0:42.325',0.02000000,0.06000000
'0:42.328',-0.12000000,-0.03000000
'0:42.331',-0.14500000,-0.13500000
'0:42.333',-0.16500000,-0.21500000
'0:42.336',-0.16000000,-0.25000000
'0:42.339',-0.18000000,-0.25000000
'0:42.342',-0.19000000,-0.20000000
'0:42.344',-0.18500000,-0.15500000
'0:42.347',-0.19500000,-0.13000000
'0:42.350',-0.21500000,-0.11000000
'0:42.353',-0.22500000,-0.08000000
'0:42.356',-0.24500000,-0.04000000
'0:42.358',-0.24500000,-0.03000000
'0:42.361',-0.24500000,-0.04500000
'0:42.364',-0.25500000,-0.05500000
'0:42.367',-0.28000000,-0.05500000
'0:42.369',-0.28000000,-0.05000000
'0:42.372',-0.28500000,-0.03000000
'0:42.375',-0.26500000,-0.01500000
'0:42.378',-0.28500000,-0.01500000
'0:42.381',-0.27500000,-0.02500000
'0:42.383',-0.29500000,-0.03500000
'0:42.386',-0.30000000,-0.03000000
'0:42.389',-0.30000000,-0.02000000
'0:42.392',-0.30000000,-0.00500000
'0:42.394',-0.28000000,-0.01000000
'0:42.397',-0.29500000,-0.01500000
'0:42.400',-0.30000000,-0.02500000
'0:42.403',-0.31500000,-0.01500000
'0:42.406',-0.31000000,-0.00500000
'0:42.408',-0.30500000,0.00500000
'0:42.411',-0.29500000,-0.00500000
'0:42.414',-0.29000000,-0.01000000
'0:42.417',-0.30500000,-0.02000000
'0:42.419',-0.30000000,-0.01500000
'0:42.422',-0.30000000,0.00500000
'0:42.425',-0.28500000,0.02000000
'0:42.428',-0.28500000,0.01000000
'0:42.431',-0.28500000,0.01000000
'0:42.433',-0.29500000,-0.01000000
'0:42.436',-0.29000000,-0.01500000
'0:42.439',-0.28000000,0.01000000
'0:42.442',-0.26500000,0.02000000
'0:42.444',-0.27000000,0.00500000
'0:42.447',-0.26500000,-0.01500000
'0:42.450',-0.27500000,-0.01000000
'0:42.453',-0.27500000,0.00500000
'0:42.456',-0.26500000,0.00000000
'0:42.458',-0.25000000,0.01500000
'0:42.461',-0.23500000,0.01500000
'0:42.464',-0.24000000,-0.00500000
'0:42.467',-0.24500000,-0.01000000
'0:42.469',-0.23500000,-0.00500000
'0:42.472',-0.22500000,0.01000000
'0:42.475',-0.21000000,0.00500000
'0:42.478',-0.19000000,0.00500000
'0:42.481',-0.20000000,-0.02500000
'0:42.483',-0.20500000,-0.01500000
'0:42.486',-0.20000000,-0.01000000
'0:42.489',-0.17500000,0.00000000
'0:42.492',-0.17500000,0.01000000
'0:42.494',-0.16000000,0.01000000
'0:42.497',-0.16500000,0.01500000
'0:42.500',-0.16500000,-0.00500000
'0:42.503',-0.15500000,-0.00500000
'0:42.506',-0.13000000,0.01000000
'0:42.508',-0.11000000,0.01500000
'0:42.511',-0.10000000,0.00500000
'0:42.514',-0.10000000,0.00500000
'0:42.517',-0.11500000,-0.01000000
'0:42.519',-0.11000000,-0.01500000
'0:42.522',-0.08000000,0.00000000
'0:42.525',-0.05000000,0.01500000
'0:42.528',-0.05000000,0.00500000
'0:42.531',-0.02500000,-0.00500000
'0:42.533',-0.03000000,-0.02000000
'0:42.536',-0.02000000,-0.02000000
'0:42.539',0.00500000,-0.01000000
'0:42.542',0.01500000,0.00500000
'0:42.544',0.03500000,0.00000000
'0:42.547',0.04000000,0.00500000
'0:42.550',0.03500000,-0.01500000
'0:42.553',0.04000000,-0.01000000
'0:42.556',0.08000000,-0.00500000
'0:42.558',0.10000000,-0.00500000
'0:42.561',0.11500000,-0.01000000
'0:42.564',0.11500000,-0.02500000
'0:42.567',0.12000000,-0.04000000
'0:42.569',0.12500000,-0.04000000
'0:42.572',0.14500000,-0.03000000
'0:42.575',0.16000000,-0.01000000
'0:42.578',0.16500000,-0.01000000
'0:42.581',0.16500000,-0.02500000
'0:42.583',0.15500000,-0.05000000
'0:42.586',0.15000000,-0.05500000
'0:42.589',0.16500000,-0.02500000
'0:42.592',0.16500000,-0.02000000
'0:42.594',0.17000000,-0.00500000
'0:42.597',0.15000000,-0.01500000
'0:42.600',0.13500000,-0.02500000
'0:42.603',0.11000000,-0.02000000
'0:42.606',0.10500000,-0.01000000
'0:42.608',0.10500000,-0.01000000
'0:42.611',0.10500000,0.01000000
'0:42.614',0.08500000,0.00000000
'0:42.617',0.06000000,0.00500000
'0:42.619',0.05500000,-0.00500000
'0:42.622',0.04500000,0.00500000
'0:42.625',0.03500000,0.01500000
'0:42.628',0.02500000,0.02500000
'0:42.631',0.02000000,0.01500000
'0:42.633',-0.02000000,0.01500000
'0:42.636',-0.02500000,0.01000000
'0:42.639',-0.02500000,0.03500000
'0:42.642',-0.02500000,0.03000000
'0:42.644',-0.04000000,0.02000000
'0:42.647',-0.06000000,0.03000000
'0:42.650',-0.08500000,0.02000000
'0:42.653',-0.10000000,0.03000000
'0:42.656',-0.11000000,0.03000000
'0:42.658',-0.11000000,0.03000000
'0:42.661',-0.10000000,0.02000000
'0:42.664',-0.12500000,0.00000000
'0:42.667',-0.14500000,0.00500000
'0:42.669',-0.15500000,0.01000000
'0:42.672',-0.15000000,0.03500000
'0:42.675',-0.14000000,0.05000000
'0:42.678',-0.14500000,0.05500000
'0:42.681',-0.15500000,0.03000000
'0:42.683',-0.16500000,0.03000000
'0:42.686',-0.18000000,0.03000000
'0:42.689',-0.18500000,0.04000000
'0:42.692',-0.17000000,0.05000000
'0:42.694',-0.17500000,0.05000000
'0:42.697',-0.18500000,0.02500000
'0:42.700',-0.20000000,0.01500000
'0:42.703',-0.20500000,0.03000000
'0:42.706',-0.19500000,0.04500000
'0:42.708',-0.17500000,0.05500000
'0:42.711',-0.16000000,0.07500000
'0:42.714',-0.17500000,0.05500000
'0:42.717',-0.19000000,0.02500000
'0:42.719',-0.20500000,0.03500000
'0:42.722',-0.20000000,0.04500000
'0:42.725',-0.17000000,0.06000000
'0:42.728',-0.16500000,0.05500000
'0:42.731',-0.16000000,0.04500000
'0:42.733',-0.18000000,0.04500000
'0:42.736',-0.17000000,0.04000000
'0:42.739',-0.17500000,0.04000000
'0:42.742',-0.15500000,0.07000000
'0:42.744',-0.15000000,0.06500000
'0:42.747',-0.15500000,0.05000000
'0:42.750',-0.16500000,0.04000000
'0:42.753',-0.15000000,0.04500000
'0:42.756',-0.14500000,0.05500000
'0:42.758',-0.14500000,0.07000000
'0:42.761',-0.13000000,0.07500000
'0:42.764',-0.13000000,0.07500000
'0:42.767',-0.14000000,0.04500000
'0:42.769',-0.14000000,0.04500000
'0:42.772',-0.13000000,0.05500000
'0:42.775',-0.11000000,0.07000000
'0:42.778',-0.11500000,0.06500000
'0:42.781',-0.10500000,0.06000000
'0:42.783',-0.13000000,0.04500000
'0:42.786',-0.11500000,0.06000000
'0:42.789',-0.11000000,0.06500000
'0:42.792',-0.08500000,0.07000000
'0:42.794',-0.08000000,0.06500000
'0:42.797',-0.08000000,0.04500000
'0:42.800',-0.11500000,0.04500000
'0:42.803',-0.10500000,0.05500000
'0:42.806',-0.09000000,0.05500000
'0:42.808',-0.09500000,0.07500000
'0:42.811',-0.08000000,0.06500000
'0:42.814',-0.10000000,0.05500000
'0:42.817',-0.10500000,0.04500000
'0:42.819',-0.10500000,0.06000000
'0:42.822',-0.10000000,0.07000000
'0:42.825',-0.09000000,0.08000000
'0:42.828',-0.08500000,0.07500000
'0:42.831',-0.10000000,0.06000000
'0:42.833',-0.12000000,0.05500000
'0:42.836',-0.12000000,0.05500000
'0:42.839',-0.11000000,0.06500000
'0:42.842',-0.09500000,0.08500000
'0:42.844',-0.10000000,0.08500000
'0:42.847',-0.12000000,0.06000000
'0:42.850',-0.13000000,0.03500000
'0:42.853',-0.12000000,0.05000000
'0:42.856',-0.12500000,0.05500000
'0:42.858',-0.10500000,0.07500000
'0:42.861',-0.10500000,0.08000000
'0:42.864',-0.12000000,0.06000000
'0:42.867',-0.13000000,0.05500000
'0:42.869',-0.13500000,0.04500000
'0:42.872',-0.13500000,0.05500000
'0:42.875',-0.12000000,0.07000000
'0:42.878',-0.12500000,0.08500000
'0:42.881',-0.12500000,0.07000000
'0:42.883',-0.15000000,0.04500000
'0:42.886',-0.16000000,0.03500000
'0:42.889',-0.15000000,0.05500000
'0:42.892',-0.14500000,0.06000000
'0:42.894',-0.14000000,0.05500000
'0:42.897',-0.14500000,0.05000000
'0:42.900',-0.16000000,0.04000000
'0:42.903',-0.18000000,0.05000000
'0:42.906',-0.17000000,0.05500000
'0:42.908',-0.16000000,0.07000000
'0:42.911',-0.14500000,0.06500000
'0:42.914',-0.16500000,0.05000000
'0:42.917',-0.17500000,0.03000000
'0:42.919',-0.18500000,0.04000000
'0:42.922',-0.18500000,0.04000000
'0:42.925',-0.17500000,0.05500000
'0:42.928',-0.16500000,0.05500000
'0:42.931',-0.16500000,0.05000000
'0:42.933',-0.18500000,0.02500000
'0:42.936',-0.19500000,0.03500000
'0:42.939',-0.17500000,0.04000000
'0:42.942',-0.17500000,0.07000000
'0:42.944',-0.17500000,0.06000000
'0:42.947',-0.18000000,0.05500000
'0:42.950',-0.20000000,0.03500000
'0:42.953',-0.19500000,0.04500000
'0:42.956',-0.20000000,0.04500000
'0:42.958',-0.18500000,0.05500000
'0:42.961',-0.17000000,0.05500000
'0:42.964',-0.17500000,0.03500000
'0:42.967',-0.19000000,0.04000000
'0:42.969',-0.21000000,0.03500000
'0:42.972',-0.19000000,0.04500000
'0:42.975',-0.18000000,0.07000000
'0:42.978',-0.18500000,0.05500000
'0:42.981',-0.18500000,0.03500000
'0:42.983',-0.20000000,0.03500000
'0:42.986',-0.20500000,0.04000000
'0:42.989',-0.21000000,0.05000000
'0:42.992',-0.19000000,0.06500000
'0:42.994',-0.18000000,0.05500000
'0:42.997',-0.21000000,0.04000000
'0:43.000',-0.20500000,0.02500000
'0:43.003',-0.20000000,0.04500000
'0:43.006',-0.20000000,0.05500000
'0:43.008',-0.19000000,0.06500000
'0:43.011',-0.17000000,0.08500000
'0:43.014',-0.20000000,0.06500000
'0:43.017',-0.21000000,0.05500000
'0:43.019',-0.20500000,0.04500000
'0:43.022',-0.20000000,0.05500000
'0:43.025',-0.18500000,0.06500000
'0:43.028',-0.18500000,0.08500000
'0:43.031',-0.18500000,0.07000000
'0:43.033',-0.18500000,0.06000000
'0:43.036',-0.19000000,0.05000000
'0:43.039',-0.19000000,0.05500000
'0:43.042',-0.17500000,0.06000000
'0:43.044',-0.18000000,0.06000000
'0:43.047',-0.18000000,0.05500000
'0:43.050',-0.19000000,0.04000000
'0:43.053',-0.18500000,0.03500000
'0:43.056',-0.19500000,0.05000000
'0:43.058',-0.18000000,0.05000000
'0:43.061',-0.17500000,0.05000000
'0:43.064',-0.16000000,0.05000000
'0:43.067',-0.18000000,0.04500000
'0:43.069',-0.17000000,0.03500000
'0:43.072',-0.15500000,0.05000000
'0:43.075',-0.13500000,0.06500000
'0:43.078',-0.13000000,0.05500000
'0:43.081',-0.13500000,0.05000000
'0:43.083',-0.14000000,0.04500000
'0:43.086',-0.13500000,0.07500000
'0:43.089',-0.11000000,0.08500000
'0:43.092',-0.08000000,0.12000000
'0:43.094',-0.07000000,0.14500000
'0:43.097',-0.07000000,0.16500000
'0:43.100',-0.06500000,0.16500000
'0:43.103',-0.07500000,0.16500000
'0:43.106',-0.04000000,0.18000000
'0:43.108',-0.00500000,0.18500000
'0:43.111',0.03000000,0.19000000
'0:43.114',0.03000000,0.18500000
'0:43.117',0.02500000,0.17500000
'0:43.119',0.03000000,0.18000000
'0:43.122',0.04000000,0.18500000
'0:43.125',0.05000000,0.15500000
'0:43.128',0.04500000,0.11000000
'0:43.131',0.03000000,0.07500000
'0:43.133',0.02000000,0.04500000
'0:43.136',0.00000000,0.01500000
'0:43.139',-0.01000000,0.03500000
'0:43.142',-0.01000000,0.05000000
'0:43.144',-0.02000000,0.04500000
'0:43.147',-0.05000000,0.03000000
'0:43.150',-0.07500000,0.02500000
'0:43.153',-0.09500000,0.04500000
'0:43.156',-0.10000000,0.05000000
'0:43.158',-0.09500000,0.06500000
'0:43.161',-0.09000000,0.04000000
'0:43.164',-0.10000000,0.02000000
'0:43.167',-0.10500000,0.00000000
'0:43.169',-0.11500000,0.02500000
'0:43.172',-0.10000000,0.04500000
'0:43.175',-0.08000000,0.04500000
'0:43.178',-0.09000000,0.04500000
'0:43.181',-0.08000000,0.02500000
'0:43.183',-0.09000000,0.00500000
'0:43.186',-0.08500000,0.03000000
'0:43.189',-0.07000000,0.03000000
'0:43.192',-0.05000000,0.05500000
'0:43.194',-0.03500000,0.02500000
'0:43.197',-0.04000000,0.00500000
'0:43.200',-0.05000000,-0.04000000
'0:43.203',-0.02000000,-0.04500000
'0:43.206',0.09000000,-0.03500000
'0:43.208',0.21500000,0.00000000
'0:43.211',0.37500000,-0.01000000
'0:43.214',0.54500000,-0.02000000
'0:43.217',0.70500000,-0.00500000
'0:43.219',0.82000000,0.07000000
'0:43.222',0.91000000,0.17500000
'0:43.225',0.94500000,0.26000000
'0:43.228',0.94000000,0.31500000
'0:43.231',0.90000000,0.35500000
'0:43.233',0.80000000,0.34000000
'0:43.236',0.63500000,0.32500000
'0:43.239',0.43500000,0.26000000
'0:43.242',0.21500000,0.19000000
'0:43.244',0.03000000,0.07500000
'0:43.247',-0.05500000,-0.04000000
'0:43.250',-0.07500000,-0.14500000
'0:43.253',-0.08500000,-0.19500000
'0:43.256',-0.07500000,-0.20000000
'0:43.258',-0.08500000,-0.14500000
'0:43.261',-0.11000000,-0.08500000
'0:43.264',-0.11500000,-0.06500000
'0:43.267',-0.15500000,-0.03500000
'0:43.269',-0.17500000,-0.01000000
'0:43.272',-0.18000000,0.01500000
'0:43.275',-0.19500000,0.03000000
'0:43.278',-0.20000000,0.03000000
'0:43.281',-0.20000000,0.02500000
'0:43.283',-0.23000000,0.02000000
'0:43.286',-0.26000000,0.03500000
'0:43.289',-0.25000000,0.04500000
'0:43.292',-0.24500000,0.04500000
'0:43.294',-0.24000000,0.05500000
'0:43.297',-0.25000000,0.04500000
'0:43.300',-0.25000000,0.02000000
'0:43.303',-0.26500000,0.03000000
'0:43.306',-0.26000000,0.04500000
'0:43.308',-0.24500000,0.04000000
'0:43.311',-0.24000000,0.05000000
'0:43.314',-0.26000000,0.03500000
'0:43.317',-0.28000000,0.02000000
'0:43.319',-0.28000000,0.03000000
'0:43.322',-0.27500000,0.06000000
'0:43.325',-0.26500000,0.06500000
'0:43.328',-0.24500000,0.06000000
'0:43.331',-0.26000000,0.05000000
'0:43.333',-0.28000000,0.02500000
'0:43.336',-0.28000000,0.04500000
'0:43.339',-0.28000000,0.06500000
'0:43.342',-0.26000000,0.08000000
'0:43.344',-0.24500000,0.07000000
'0:43.347',-0.24500000,0.04500000
'0:43.350',-0.26500000,0.03500000
'0:43.353',-0.26500000,0.04500000
'0:43.356',-0.27000000,0.06500000
'0:43.358',-0.24000000,0.06500000
'0:43.361',-0.24500000,0.07500000
'0:43.364',-0.25000000,0.08000000
'0:43.367',-0.25000000,0.05000000
'0:43.369',-0.26500000,0.06000000
'0:43.372',-0.22500000,0.06500000
'0:43.375',-0.21500000,0.08500000
'0:43.378',-0.21500000,0.04500000
'0:43.381',-0.21000000,0.03000000
'0:43.383',-0.23000000,0.00500000
'0:43.386',-0.23500000,0.02500000
'0:43.389',-0.21000000,0.05000000
'0:43.392',-0.21500000,0.05500000
'0:43.394',-0.19000000,0.04000000
'0:43.397',-0.18500000,0.03000000
'0:43.400',-0.18500000,0.03000000
'0:43.403',-0.19500000,0.03500000
'0:43.406',-0.17500000,0.05000000
'0:43.408',-0.17000000,0.05000000
'0:43.411',-0.16500000,0.03500000
'0:43.414',-0.14500000,0.03000000
'0:43.417',-0.16000000,0.01500000
'0:43.419',-0.15500000,0.03500000
'0:43.422',-0.15000000,0.04500000
'0:43.425',-0.11500000,0.05000000
'0:43.428',-0.12000000,0.04000000
'0:43.431',-0.09500000,0.03000000
'0:43.433',-0.10000000,0.02000000
'0:43.436',-0.09500000,0.02500000
'0:43.439',-0.08000000,0.04000000
'0:43.442',-0.04500000,0.05500000
'0:43.444',-0.03500000,0.05500000
'0:43.447',-0.03000000,0.03000000
'0:43.450',-0.03000000,0.01500000
'0:43.453',-0.02000000,0.01500000
'0:43.456',0.00000000,0.03000000
'0:43.458',0.01500000,0.03000000
'0:43.461',0.04000000,0.04500000
'0:43.464',0.04500000,0.02000000
'0:43.467',0.04500000,0.00000000
'0:43.469',0.02500000,0.00500000
'0:43.472',0.06500000,0.02000000
'0:43.475',0.09000000,0.02500000
'0:43.478',0.10000000,0.02500000
'0:43.481',0.10000000,0.01000000
'0:43.483',0.10500000,-0.01000000
'0:43.486',0.11000000,0.00500000
'0:43.489',0.13000000,0.00500000
'0:43.492',0.14500000,0.01000000
'0:43.494',0.14500000,0.00000000
'0:43.497',0.15000000,-0.01000000
'0:43.500',0.14500000,-0.02000000
'0:43.503',0.12500000,-0.02000000
'0:43.506',0.14000000,0.00500000
'0:43.508',0.14000000,0.01500000
'0:43.511',0.14500000,0.01000000
'0:43.514',0.13000000,0.00500000
'0:43.517',0.11000000,-0.00500000
'0:43.519',0.09000000,0.00500000
'0:43.522',0.08000000,0.03500000
'0:43.525',0.08500000,0.04500000
'0:43.528',0.07000000,0.03000000
'0:43.531',0.06500000,0.01500000
'0:43.533',0.03000000,-0.00500000
'0:43.536',0.01500000,0.00000000
'0:43.539',0.01000000,0.02500000
'0:43.542',0.01500000,0.04500000
'0:43.544',0.00500000,0.03500000
'0:43.547',-0.01000000,0.03500000
'0:43.550',-0.04500000,0.00500000
'0:43.553',-0.05500000,0.02000000
'0:43.556',-0.07000000,0.03500000
'0:43.558',-0.06500000,0.04000000
'0:43.561',-0.07500000,0.03500000
'0:43.564',-0.09000000,0.03000000
'0:43.567',-0.11500000,0.02000000
'0:43.569',-0.13000000,0.04000000
'0:43.572',-0.13000000,0.05500000
'0:43.575',-0.12500000,0.06000000
'0:43.578',-0.13500000,0.05000000
'0:43.581',-0.14000000,0.03500000
'0:43.583',-0.15500000,0.03500000
'0:43.586',-0.18000000,0.03500000
'0:43.589',-0.17000000,0.04500000
'0:43.592',-0.16000000,0.04500000
'0:43.594',-0.16000000,0.04000000
'0:43.597',-0.18000000,0.02500000
'0:43.600',-0.20000000,0.00500000
'0:43.603',-0.20000000,0.02000000
'0:43.606',-0.20000000,0.03500000
'0:43.608',-0.19000000,0.05500000
'0:43.611',-0.20000000,0.05500000
'0:43.614',-0.19000000,0.05000000
'0:43.617',-0.21000000,0.05500000
'0:43.619',-0.21500000,0.05500000
'0:43.622',-0.21000000,0.06000000
'0:43.625',-0.18500000,0.04500000
'0:43.628',-0.18000000,0.03000000
'0:43.631',-0.20000000,0.01500000
'0:43.633',-0.21500000,0.00000000
'0:43.636',-0.22000000,0.01500000
'0:43.639',-0.21000000,0.04000000
'0:43.642',-0.19500000,0.04500000
'0:43.644',-0.18500000,0.04500000
'0:43.647',-0.20000000,0.02500000
'0:43.650',-0.22500000,0.02000000
'0:43.653',-0.20500000,0.02500000
'0:43.656',-0.19000000,0.05500000
'0:43.658',-0.18000000,0.05500000
'0:43.661',-0.18000000,0.06000000
'0:43.664',-0.17500000,0.04500000
'0:43.667',-0.18000000,0.03500000
'0:43.669',-0.19000000,0.04500000
'0:43.672',-0.17500000,0.06000000
'0:43.675',-0.17000000,0.09000000
'0:43.678',-0.15000000,0.10000000
'0:43.681',-0.15500000,0.08500000
'0:43.683',-0.16500000,0.06000000
'0:43.686',-0.16500000,0.05500000
'0:43.689',-0.15500000,0.05500000
'0:43.692',-0.15000000,0.06500000
'0:43.694',-0.13500000,0.06500000
'0:43.697',-0.14500000,0.05000000
'0:43.700',-0.16000000,0.03500000
'0:43.703',-0.16500000,0.04500000
'0:43.706',-0.14500000,0.06500000
'0:43.708',-0.13500000,0.07500000
'0:43.711',-0.14500000,0.06500000
'0:43.714',-0.14500000,0.05000000
'0:43.717',-0.16500000,0.03500000
'0:43.719',-0.15000000,0.03500000
'0:43.722',-0.14500000,0.05000000
'0:43.725',-0.13500000,0.07000000
'0:43.728',-0.13000000,0.05000000
'0:43.731',-0.13500000,0.04500000
'0:43.733',-0.16000000,0.03500000
'0:43.736',-0.16000000,0.04000000
'0:43.739',-0.15500000,0.05000000
'0:43.742',-0.13000000,0.07000000
'0:43.744',-0.13500000,0.06500000
'0:43.747',-0.14000000,0.05000000
'0:43.750',-0.15500000,0.03500000
'0:43.753',-0.18000000,0.03500000
'0:43.756',-0.16000000,0.05500000
'0:43.758',-0.15500000,0.05500000
'0:43.761',-0.17500000,0.05500000
'0:43.764',-0.17000000,0.03500000
'0:43.767',-0.17500000,0.03000000
'0:43.769',-0.19000000,0.03500000
'0:43.772',-0.17500000,0.04500000
'0:43.775',-0.17000000,0.06000000
'0:43.778',-0.16500000,0.05500000
'0:43.781',-0.18000000,0.04500000
'0:43.783',-0.20000000,0.02000000
'0:43.786',-0.20000000,0.04500000
'0:43.789',-0.20500000,0.04500000
'0:43.792',-0.18000000,0.05500000
'0:43.794',-0.18500000,0.05000000
'0:43.797',-0.19000000,0.03000000
'0:43.800',-0.21000000,0.03000000
'0:43.803',-0.21000000,0.04000000
'0:43.806',-0.21000000,0.04500000
'0:43.808',-0.18500000,0.04000000
'0:43.811',-0.18500000,0.02000000
'0:43.814',-0.19000000,0.01500000
'0:43.817',-0.21000000,-0.01000000
'0:43.819',-0.21000000,-0.01500000
'0:43.822',-0.22500000,0.00500000
'0:43.825',-0.20500000,0.03500000
'0:43.828',-0.20000000,0.03000000
'0:43.831',-0.21000000,0.01500000
'0:43.833',-0.22500000,0.00000000
'0:43.836',-0.23000000,0.01500000
'0:43.839',-0.21500000,0.02500000
'0:43.842',-0.21500000,0.02500000
'0:43.844',-0.20500000,0.03500000
'0:43.847',-0.22000000,0.02500000
'0:43.850',-0.23500000,0.00500000
'0:43.853',-0.25000000,0.01000000
'0:43.856',-0.24000000,0.04000000
'0:43.858',-0.23500000,0.06000000
'0:43.861',-0.21500000,0.05000000
'0:43.864',-0.22000000,0.04000000
'0:43.867',-0.23000000,0.03000000
'0:43.869',-0.23500000,0.03000000
'0:43.872',-0.23000000,0.03000000
'0:43.875',-0.23000000,0.04500000
'0:43.878',-0.21500000,0.03000000
'0:43.881',-0.23500000,0.01500000
'0:43.883',-0.24500000,0.00500000
'0:43.886',-0.23500000,0.00000000
'0:43.889',-0.23000000,0.01500000
'0:43.892',-0.21500000,0.02500000
'0:43.894',-0.22000000,0.03000000
'0:43.897',-0.20500000,0.02000000
'0:43.900',-0.22500000,0.01500000
'0:43.903',-0.23000000,0.02500000
'0:43.906',-0.23500000,0.03500000
'0:43.908',-0.21500000,0.02500000
'0:43.911',-0.20500000,0.02000000
'0:43.914',-0.21500000,0.01000000
'0:43.917',-0.25000000,-0.00500000
'0:43.919',-0.24000000,0.01000000
'0:43.922',-0.23000000,0.03000000
'0:43.925',-0.22500000,0.04500000
'0:43.928',-0.21000000,0.04000000
'0:43.931',-0.21500000,0.02500000
'0:43.933',-0.23000000,0.02000000
'0:43.936',-0.23500000,0.02500000
'0:43.939',-0.22500000,0.02500000
'0:43.942',-0.23000000,0.04500000
'0:43.944',-0.21500000,0.04000000
'0:43.947',-0.21500000,0.02500000
'0:43.950',-0.23000000,0.00000000
'0:43.953',-0.23500000,0.01500000
'0:43.956',-0.22500000,0.02000000
'0:43.958',-0.22000000,0.03500000
'0:43.961',-0.20500000,0.03500000
'0:43.964',-0.21000000,0.02500000
'0:43.967',-0.22500000,0.01000000
'0:43.969',-0.22000000,0.01500000
'0:43.972',-0.22000000,0.02000000
'0:43.975',-0.21500000,0.05000000
'0:43.978',-0.20000000,0.03500000
'0:43.981',-0.22000000,0.04500000
'0:43.983',-0.23000000,0.02000000
'0:43.986',-0.23000000,0.01000000
'0:43.989',-0.21500000,0.02500000
'0:43.992',-0.20000000,0.04000000
'0:43.994',-0.19500000,0.04000000
'0:43.997',-0.20000000,0.04500000
'0:44.000',-0.20000000,0.03000000
'0:44.003',-0.20500000,0.02000000
'0:44.006',-0.20000000,0.02500000
'0:44.008',-0.18000000,0.04000000
'0:44.011',-0.18000000,0.03000000
'0:44.014',-0.17000000,0.01000000
'0:44.017',-0.18500000,0.00500000
'0:44.019',-0.18000000,0.01500000
'0:44.022',-0.17000000,0.04000000
'0:44.025',-0.14000000,0.05000000
'0:44.028',-0.12000000,0.05500000
'0:44.031',-0.13500000,0.06000000
'0:44.033',-0.12000000,0.06000000
'0:44.036',-0.12000000,0.09000000
'0:44.039',-0.10500000,0.11000000
'0:44.042',-0.07500000,0.13500000
'0:44.044',-0.06000000,0.13500000
'0:44.047',-0.06500000,0.11000000
'0:44.050',-0.04500000,0.09500000
'0:44.053',-0.03500000,0.09000000
'0:44.056',0.00000000,0.10000000
'0:44.058',0.03500000,0.10000000
'0:44.061',0.05000000,0.09000000
'0:44.064',0.03500000,0.07000000
'0:44.067',0.02000000,0.04000000
'0:44.069',0.01000000,0.03500000
'0:44.072',0.00000000,0.04500000
'0:44.075',0.00500000,0.05500000
'0:44.078',-0.00500000,0.04000000
'0:44.081',-0.01500000,0.02500000
'0:44.083',-0.05000000,0.01500000
'0:44.086',-0.07500000,0.02000000
'0:44.089',-0.08000000,0.03000000
'0:44.092',-0.08500000,0.04500000
'0:44.094',-0.09500000,0.02000000
'0:44.097',-0.13000000,0.01500000
'0:44.100',-0.15500000,0.01000000
'0:44.103',-0.17000000,0.02500000
'0:44.106',-0.16500000,0.04000000
'0:44.108',-0.14500000,0.04500000
'0:44.111',-0.15500000,0.03500000
'0:44.114',-0.15000000,0.01000000
'0:44.117',-0.15000000,0.00000000
'0:44.119',-0.14500000,0.00000000
'0:44.122',-0.14500000,0.02500000
'0:44.125',-0.13000000,0.03000000
'0:44.128',-0.11500000,0.02000000
'0:44.131',-0.12500000,0.01000000
'0:44.133',-0.12000000,-0.00500000
'0:44.136',-0.11500000,0.00500000
'0:44.139',-0.10500000,0.00500000
'0:44.142',-0.08500000,0.00500000
'0:44.144',-0.03500000,-0.04500000
'0:44.147',0.04000000,-0.05000000
'0:44.150',0.14000000,-0.05000000
'0:44.153',0.30500000,-0.06000000
'0:44.156',0.54000000,-0.07000000
'0:44.158',0.75500000,-0.02000000
'0:44.161',0.89500000,0.05500000
'0:44.164',0.98000000,0.13500000
'0:44.167',0.98500000,0.20000000
'0:44.169',0.97500000,0.28000000
'0:44.172',0.92500000,0.34000000
'0:44.175',0.82500000,0.36500000
'0:44.178',0.62000000,0.33000000
'0:44.181',0.33000000,0.24000000
'0:44.183',0.05000000,0.11500000
'0:44.186',-0.11500000,-0.00500000
'0:44.189',-0.15000000,-0.11500000
'0:44.192',-0.13000000,-0.17500000
'0:44.194',-0.09000000,-0.22500000
'0:44.197',-0.14000000,-0.20500000
'0:44.200',-0.15500000,-0.14000000
'0:44.203',-0.18500000,-0.08500000
'0:44.206',-0.18500000,-0.03500000
'0:44.208',-0.18500000,-0.01000000
'0:44.211',-0.19000000,0.00500000
'0:44.214',-0.22000000,0.00000000
'0:44.217',-0.25000000,-0.02000000
'0:44.219',-0.26000000,-0.01000000
'0:44.222',-0.27000000,0.00500000
'0:44.225',-0.26500000,0.03500000
'0:44.228',-0.27000000,0.02500000
'0:44.231',-0.28500000,0.02000000
'0:44.233',-0.29500000,0.00500000
'0:44.236',-0.29500000,0.02000000
'0:44.239',-0.30500000,0.01500000
'0:44.242',-0.28500000,0.04000000
'0:44.244',-0.29000000,0.02500000
'0:44.247',-0.31000000,0.01500000
'0:44.250',-0.32000000,0.01500000
'0:44.253',-0.32500000,0.01500000
'0:44.256',-0.30500000,0.03000000
'0:44.258',-0.29000000,0.05000000
'0:44.261',-0.30000000,0.04000000
'0:44.264',-0.29000000,0.03500000
'0:44.267',-0.31000000,0.02000000
'0:44.269',-0.31000000,0.03500000
'0:44.272',-0.31500000,0.03500000
'0:44.275',-0.29500000,0.05500000
'0:44.278',-0.27500000,0.05500000
'0:44.281',-0.29000000,0.02500000
'0:44.283',-0.30500000,0.02500000
'0:44.286',-0.31500000,0.02500000
'0:44.289',-0.30500000,0.03000000
'0:44.292',-0.28500000,0.04000000
'0:44.294',-0.26500000,0.03000000
'0:44.297',-0.28500000,0.03500000
'0:44.300',-0.29000000,0.01500000
'0:44.303',-0.29000000,0.02500000
'0:44.306',-0.28000000,0.04000000
'0:44.308',-0.26500000,0.05500000
'0:44.311',-0.25500000,0.06000000
'0:44.314',-0.26000000,0.04500000
'0:44.317',-0.27500000,0.03500000
'0:44.319',-0.27000000,0.03000000
'0:44.322',-0.26500000,0.02500000
'0:44.325',-0.22500000,0.03500000
'0:44.328',-0.22000000,0.02500000
'0:44.331',-0.22000000,0.02500000
'0:44.333',-0.23500000,0.00500000
'0:44.336',-0.23500000,0.00500000
'0:44.339',-0.19500000,0.02000000
'0:44.342',-0.19000000,0.03500000
'0:44.344',-0.17500000,0.02000000
'0:44.347',-0.18000000,0.01500000
'0:44.350',-0.17000000,0.00000000
'0:44.353',-0.18000000,-0.01000000
'0:44.356',-0.15000000,-0.00500000
'0:44.358',-0.13000000,0.01500000
'0:44.361',-0.11000000,0.02000000
'0:44.364',-0.11000000,-0.00500000
'0:44.367',-0.11000000,-0.00500000
'0:44.369',-0.10500000,0.00000000
'0:44.372',-0.09000000,0.02000000
'0:44.375',-0.07000000,0.02000000
'0:44.378',-0.04500000,0.03000000
'0:44.381',-0.04000000,0.00500000
'0:44.383',-0.04500000,-0.01000000
'0:44.386',-0.03000000,-0.01000000
'0:44.389',-0.00500000,-0.00500000
'0:44.392',0.00500000,-0.00500000
'0:44.394',0.01000000,-0.01500000
'0:44.397',0.04000000,-0.03500000
'0:44.400',0.04000000,-0.03000000
'0:44.403',0.04500000,-0.02500000
'0:44.406',0.06500000,-0.01000000
'0:44.408',0.08500000,-0.00500000
'0:44.411',0.09000000,-0.01000000
'0:44.414',0.10500000,-0.02500000
'0:44.417',0.08000000,-0.04000000
'0:44.419',0.09500000,-0.06000000
'0:44.422',0.10500000,-0.04000000
'0:44.425',0.11500000,-0.02500000
'0:44.428',0.11000000,-0.02500000
'0:44.431',0.12500000,-0.04000000
'0:44.433',0.09000000,-0.06500000
'0:44.436',0.09000000,-0.05000000
'0:44.439',0.10500000,-0.02500000
'0:44.442',0.12000000,-0.01500000
'0:44.444',0.11000000,-0.02500000
'0:44.447',0.08500000,-0.02000000
'0:44.450',0.05000000,-0.03500000
'0:44.453',0.03500000,-0.02500000
'0:44.456',0.04500000,-0.02000000
'0:44.458',0.04500000,-0.01000000
'0:44.461',0.03000000,-0.00500000
'0:44.464',0.01500000,-0.02000000
'0:44.467',-0.01000000,-0.02000000
'0:44.469',-0.04000000,-0.02000000
'0:44.472',-0.04500000,0.00500000
'0:44.475',-0.05000000,0.01000000
'0:44.478',-0.06000000,0.01500000
'0:44.481',-0.08500000,0.00000000
'0:44.483',-0.10000000,-0.01000000
'0:44.486',-0.12500000,0.00000000
'0:44.489',-0.13000000,0.02500000
'0:44.492',-0.13500000,0.03000000
'0:44.494',-0.13500000,0.00500000
'0:44.497',-0.17000000,-0.01000000
'0:44.500',-0.20500000,-0.02000000
'0:44.503',-0.21000000,-0.01500000
'0:44.506',-0.21500000,0.00000000
'0:44.508',-0.20000000,0.01500000
'0:44.511',-0.20000000,0.01500000
'0:44.514',-0.21000000,0.00000000
'0:44.517',-0.23000000,-0.01500000
'0:44.519',-0.24000000,0.00500000
'0:44.522',-0.24000000,0.02000000
'0:44.525',-0.24500000,0.01500000
'0:44.528',-0.25000000,0.02000000
'0:44.531',-0.25500000,0.01000000
'0:44.533',-0.25500000,0.00000000
'0:44.536',-0.27000000,-0.00500000
'0:44.539',-0.27000000,0.01000000
'0:44.542',-0.26000000,0.00500000
'0:44.544',-0.25000000,-0.00500000
'0:44.547',-0.25500000,-0.01500000
'0:44.550',-0.27500000,-0.01500000
'0:44.553',-0.29000000,-0.01000000
'0:44.556',-0.27000000,0.00000000
'0:44.558',-0.26000000,0.01000000
'0:44.561',-0.25500000,0.02000000
'0:44.564',-0.25500000,0.01000000
'0:44.567',-0.26500000,0.00500000
'0:44.569',-0.28000000,0.02500000
'0:44.572',-0.26500000,0.03000000
'0:44.575',-0.25500000,0.04500000
'0:44.578',-0.24000000,0.02500000
'0:44.581',-0.24500000,0.00000000
'0:44.583',-0.25500000,-0.01000000
'0:44.586',-0.28000000,0.01000000
'0:44.589',-0.25000000,0.02000000
'0:44.592',-0.24000000,0.03500000
'0:44.594',-0.24500000,0.03000000
'0:44.597',-0.23500000,0.02000000
'0:44.600',-0.24000000,0.01500000
'0:44.603',-0.26000000,0.01500000
'0:44.606',-0.24500000,0.01500000
'0:44.608',-0.23000000,0.02500000
'0:44.611',-0.21500000,0.02500000
'0:44.614',-0.22000000,0.01000000
'0:44.617',-0.21500000,0.01000000
'0:44.619',-0.23000000,0.01000000
'0:44.622',-0.21500000,0.03500000
'0:44.625',-0.20000000,0.04500000
'0:44.628',-0.19000000,0.04500000
'0:44.631',-0.20000000,0.03500000
'0:44.633',-0.21500000,0.03000000
'0:44.636',-0.22000000,0.01500000
'0:44.639',-0.22000000,0.02000000
'0:44.642',-0.20500000,0.01500000
'0:44.644',-0.19500000,0.01500000
'0:44.647',-0.20500000,0.01000000
'0:44.650',-0.22500000,0.00000000
'0:44.653',-0.22500000,0.00500000
'0:44.656',-0.22000000,0.01500000
'0:44.658',-0.21000000,0.02500000
'0:44.661',-0.22000000,0.02000000
'0:44.664',-0.21000000,0.01000000
'0:44.667',-0.23500000,0.00000000
'0:44.669',-0.23000000,0.00000000
'0:44.672',-0.23000000,0.00500000
'0:44.675',-0.22000000,0.02000000
'0:44.678',-0.21500000,0.00500000
'0:44.681',-0.23500000,0.00500000
'0:44.683',-0.23500000,-0.02000000
'0:44.686',-0.25000000,-0.00500000
'0:44.689',-0.24500000,0.01500000
'0:44.692',-0.23000000,0.03000000
'0:44.694',-0.23000000,0.03500000
'0:44.697',-0.24500000,0.00500000
'0:44.700',-0.25000000,-0.00500000
'0:44.703',-0.26000000,-0.01500000
'0:44.706',-0.26000000,-0.00500000
'0:44.708',-0.24500000,0.01500000
'0:44.711',-0.24500000,-0.01000000
'0:44.714',-0.24500000,0.00000000
'0:44.717',-0.27500000,-0.00500000
'0:44.719',-0.28000000,-0.00500000
'0:44.722',-0.27500000,0.01500000
'0:44.725',-0.26000000,0.02500000
'0:44.728',-0.26000000,0.02000000
'0:44.731',-0.27000000,0.00500000
'0:44.733',-0.29000000,-0.01000000
'0:44.736',-0.30000000,0.00500000
'0:44.739',-0.28500000,0.01500000
'0:44.742',-0.28000000,0.00500000
'0:44.744',-0.27500000,0.00500000
'0:44.747',-0.28500000,-0.01000000
'0:44.750',-0.30500000,-0.02500000
'0:44.753',-0.31000000,-0.01500000
'0:44.756',-0.30000000,-0.01000000
'0:44.758',-0.30000000,0.01000000
'0:44.761',-0.28000000,-0.00500000
'0:44.764',-0.29000000,-0.00500000
'0:44.767',-0.31000000,-0.01500000
'0:44.769',-0.31500000,-0.01000000
'0:44.772',-0.30500000,0.00000000
'0:44.775',-0.30500000,0.00000000
'0:44.778',-0.30500000,0.00000000
'0:44.781',-0.30500000,-0.01000000
'0:44.783',-0.32000000,-0.01000000
'0:44.786',-0.31500000,-0.00500000
'0:44.789',-0.32000000,-0.00500000
'0:44.792',-0.30500000,0.01000000
'0:44.794',-0.29500000,0.00500000
'0:44.797',-0.30000000,0.00000000
'0:44.800',-0.33000000,-0.01500000
'0:44.803',-0.31500000,-0.02000000
'0:44.806',-0.31500000,-0.02500000
'0:44.808',-0.30500000,-0.01000000
'0:44.811',-0.30000000,-0.02000000
'0:44.814',-0.30000000,-0.03500000
'0:44.817',-0.31000000,-0.04500000
'0:44.819',-0.32000000,-0.02500000
'0:44.822',-0.32500000,-0.00500000
'0:44.825',-0.31500000,0.00000000
'0:44.828',-0.31000000,-0.01000000
'0:44.831',-0.30500000,-0.01500000
'0:44.833',-0.32500000,-0.02500000
'0:44.836',-0.32500000,-0.02500000
'0:44.839',-0.32000000,-0.00500000
'0:44.842',-0.32500000,0.01000000
'0:44.844',-0.31500000,-0.00500000
'0:44.847',-0.31500000,-0.03500000
'0:44.850',-0.34000000,-0.04500000
'0:44.853',-0.33500000,-0.03500000
'0:44.856',-0.32500000,-0.02500000
'0:44.858',-0.32000000,-0.01000000
'0:44.861',-0.30500000,-0.02500000
'0:44.864',-0.31500000,-0.02000000
'0:44.867',-0.32500000,-0.03000000
'0:44.869',-0.32500000,-0.03500000
'0:44.872',-0.32500000,-0.02000000
'0:44.875',-0.32500000,0.00000000
'0:44.878',-0.30500000,-0.01000000
'0:44.881',-0.32500000,-0.01500000
'0:44.883',-0.34000000,-0.03500000
'0:44.886',-0.35000000,-0.03500000
'0:44.889',-0.31500000,-0.01000000
'0:44.892',-0.31500000,-0.00500000
'0:44.894',-0.31500000,-0.00500000
'0:44.897',-0.31500000,-0.03000000
'0:44.900',-0.32500000,-0.04500000
'0:44.903',-0.33000000,-0.05000000
'0:44.906',-0.31500000,-0.03000000
'0:44.908',-0.30500000,-0.00500000
'0:44.911',-0.29500000,-0.01500000
'0:44.914',-0.31500000,-0.02000000
'0:44.917',-0.32000000,-0.05000000
'0:44.919',-0.33000000,-0.05500000
'0:44.922',-0.32500000,-0.04000000
'0:44.925',-0.30000000,-0.02500000
'0:44.928',-0.30500000,-0.02000000
'0:44.931',-0.31000000,-0.02500000
'0:44.933',-0.31000000,-0.05000000
'0:44.936',-0.32000000,-0.04500000
'0:44.939',-0.31000000,-0.03000000
'0:44.942',-0.30000000,-0.02000000
'0:44.944',-0.29000000,-0.01500000
'0:44.947',-0.29500000,-0.00500000
'0:44.950',-0.29500000,-0.03000000
'0:44.953',-0.30000000,-0.03000000
'0:44.956',-0.30000000,-0.02500000
'0:44.958',-0.29000000,-0.01500000
'0:44.961',-0.27500000,-0.03000000
'0:44.964',-0.28000000,-0.04000000
'0:44.967',-0.28500000,-0.04000000
'0:44.969',-0.28500000,-0.03500000
'0:44.972',-0.29000000,-0.01500000
'0:44.975',-0.25500000,-0.02000000
'0:44.978',-0.23500000,-0.01500000
'0:44.981',-0.23500000,-0.03000000
'0:44.983',-0.24000000,-0.03500000
'0:44.986',-0.25000000,-0.04000000
'0:44.989',-0.23500000,-0.02500000
'0:44.992',-0.21000000,-0.02000000
'0:44.994',-0.20000000,-0.02000000
'0:44.997',-0.19000000,-0.00500000
'0:45.000',-0.19000000,-0.00500000
'0:45.003',-0.18500000,0.00500000
'0:45.006',-0.16000000,0.01000000
'0:45.008',-0.13500000,0.01000000
'0:45.011',-0.10000000,-0.01000000
'0:45.014',-0.08500000,-0.05000000
'0:45.017',-0.08500000,-0.08000000
'0:45.019',-0.10000000,-0.08500000
'0:45.022',-0.10500000,-0.05500000
'0:45.025',-0.11000000,-0.04000000
'0:45.028',-0.11000000,-0.03500000
'0:45.031',-0.11500000,-0.03500000
'0:45.033',-0.13500000,-0.04000000
'0:45.036',-0.16000000,-0.04500000
'0:45.039',-0.15000000,-0.04000000
'0:45.042',-0.16000000,-0.02500000
'0:45.044',-0.15500000,-0.01500000
'0:45.047',-0.17000000,-0.02000000
'0:45.050',-0.19500000,-0.02500000
'0:45.053',-0.21500000,-0.02500000
'0:45.056',-0.21500000,-0.01000000
'0:45.058',-0.21500000,-0.01000000
'0:45.061',-0.23000000,-0.02000000
'0:45.064',-0.22000000,-0.03500000
'0:45.067',-0.24000000,-0.04500000
'0:45.069',-0.22500000,-0.04500000
'0:45.072',-0.23000000,-0.04500000
'0:45.075',-0.20000000,-0.03000000
'0:45.078',-0.19000000,-0.04000000
'0:45.081',-0.19000000,-0.03000000
'0:45.083',-0.20500000,-0.03500000
'0:45.086',-0.19500000,-0.03000000
'0:45.089',-0.17500000,-0.02500000
'0:45.092',-0.17000000,-0.01500000
'0:45.094',-0.15000000,-0.04500000
'0:45.097',-0.15000000,-0.06000000
'0:45.100',-0.14500000,-0.09000000
'0:45.103',-0.11500000,-0.09500000
'0:45.106',-0.02000000,-0.08500000
'0:45.108',0.12000000,-0.05000000
'0:45.111',0.31500000,-0.05500000
'0:45.114',0.50500000,-0.07500000
'0:45.117',0.68000000,-0.04000000
'0:45.119',0.82500000,0.04000000
'0:45.122',0.90500000,0.12500000
'0:45.125',0.92000000,0.19500000
'0:45.128',0.89500000,0.24000000
'0:45.131',0.80000000,0.26000000
'0:45.133',0.62500000,0.22000000
'0:45.136',0.36500000,0.16500000
'0:45.139',0.04500000,0.07500000
'0:45.142',-0.14500000,-0.02000000
'0:45.144',-0.22500000,-0.13000000
'0:45.147',-0.19000000,-0.22000000
'0:45.150',-0.19000000,-0.28000000
'0:45.153',-0.21500000,-0.25500000
'0:45.156',-0.23500000,-0.21500000
'0:45.158',-0.23500000,-0.14000000
'0:45.161',-0.23500000,-0.10000000
'0:45.164',-0.25500000,-0.08000000
'0:45.167',-0.28500000,-0.04000000
'0:45.169',-0.31000000,-0.03500000
'0:45.172',-0.32000000,-0.03000000
'0:45.175',-0.29500000,-0.03500000
'0:45.178',-0.30500000,-0.03500000
'0:45.181',-0.31000000,-0.03500000
'0:45.183',-0.34000000,-0.05000000
'0:45.186',-0.35000000,-0.04500000
'0:45.189',-0.34000000,-0.02500000
'0:45.192',-0.33000000,-0.01000000
'0:45.194',-0.33000000,-0.01500000
'0:45.197',-0.34500000,-0.03000000
'0:45.200',-0.36500000,-0.05000000
'0:45.203',-0.37000000,-0.03500000
'0:45.206',-0.36000000,-0.02500000
'0:45.208',-0.35500000,-0.00500000
'0:45.211',-0.33000000,0.00000000
'0:45.214',-0.35000000,-0.00500000
'0:45.217',-0.36500000,-0.01000000
'0:45.219',-0.36500000,0.00000000
'0:45.222',-0.36000000,-0.00500000
'0:45.225',-0.34500000,-0.00500000
'0:45.228',-0.33000000,-0.00500000
'0:45.231',-0.34000000,-0.03500000
'0:45.233',-0.36000000,-0.03500000
'0:45.236',-0.35500000,-0.04000000
'0:45.239',-0.34000000,-0.02000000
'0:45.242',-0.33000000,-0.01000000
'0:45.244',-0.33000000,0.00000000
'0:45.247',-0.34000000,0.00000000
'0:45.250',-0.34500000,-0.01000000
'0:45.253',-0.35500000,-0.02500000
'0:45.256',-0.33000000,0.00000000
'0:45.258',-0.31500000,0.00000000
'0:45.261',-0.30500000,-0.00500000
'0:45.264',-0.31500000,-0.00500000
'0:45.267',-0.31500000,-0.03000000
'0:45.269',-0.31000000,-0.02000000
'0:45.272',-0.30000000,-0.02000000
'0:45.275',-0.28000000,-0.01500000
'0:45.278',-0.27000000,-0.01500000
'0:45.281',-0.27000000,-0.01500000
'0:45.283',-0.28500000,-0.02500000
'0:45.286',-0.27500000,-0.01000000
'0:45.289',-0.28500000,0.00000000
'0:45.292',-0.25500000,0.00500000
'0:45.294',-0.25000000,0.00000000
'0:45.297',-0.23500000,-0.01500000
'0:45.300',-0.23500000,-0.03500000
'0:45.303',-0.24500000,-0.02500000
'0:45.306',-0.22500000,-0.01500000
'0:45.308',-0.20500000,0.00000000
'0:45.311',-0.19000000,0.00000000
'0:45.314',-0.19000000,-0.00500000
'0:45.317',-0.18000000,-0.02000000
'0:45.319',-0.19000000,-0.00500000
'0:45.322',-0.17000000,-0.00500000
'0:45.325',-0.13500000,-0.00500000
'0:45.328',-0.11500000,-0.01000000
'0:45.331',-0.12000000,-0.01500000
'0:45.333',-0.12500000,-0.02500000
'0:45.336',-0.11000000,-0.03500000
'0:45.339',-0.08000000,-0.02000000
'0:45.342',-0.06000000,-0.01500000
'0:45.344',-0.04500000,-0.03500000
'0:45.347',-0.03500000,-0.04500000
'0:45.350',-0.04000000,-0.05000000
'0:45.353',-0.03000000,-0.05500000
'0:45.356',-0.00500000,-0.04500000
'0:45.358',0.01500000,-0.03000000
'0:45.361',0.05000000,-0.04000000
'0:45.364',0.05000000,-0.04000000
'0:45.367',0.05500000,-0.06000000
'0:45.369',0.06000000,-0.04500000
'0:45.372',0.07500000,-0.03500000
'0:45.375',0.10500000,-0.02500000
'0:45.378',0.10500000,-0.05000000
'0:45.381',0.10000000,-0.06000000
'0:45.383',0.10500000,-0.08000000
'0:45.386',0.10500000,-0.07500000
'0:45.389',0.10500000,-0.05500000
'0:45.392',0.13500000,-0.05000000
'0:45.394',0.12000000,-0.06500000
'0:45.397',0.11500000,-0.07500000
'0:45.400',0.10500000,-0.07000000
'0:45.403',0.08000000,-0.07500000
'0:45.406',0.07500000,-0.06000000
'0:45.408',0.09000000,-0.03000000
'0:45.411',0.08500000,-0.04000000
'0:45.414',0.08000000,-0.04500000
'0:45.417',0.04500000,-0.04000000
'0:45.419',0.03000000,-0.05000000
'0:45.422',0.00000000,-0.04000000
'0:45.425',0.00000000,-0.02500000
'0:45.428',-0.00500000,-0.03000000
'0:45.431',-0.01000000,-0.03500000
'0:45.433',-0.05000000,-0.03000000
'0:45.436',-0.07500000,-0.01500000
'0:45.439',-0.08000000,-0.01000000
'0:45.442',-0.08500000,0.00000000
'0:45.444',-0.09500000,-0.02500000
'0:45.447',-0.11000000,-0.02500000
'0:45.450',-0.14000000,-0.03500000
'0:45.453',-0.16500000,-0.03500000
'0:45.456',-0.15500000,-0.01500000
'0:45.458',-0.17500000,0.00500000
'0:45.461',-0.16500000,-0.01000000
'0:45.464',-0.18000000,-0.01500000
'0:45.467',-0.21000000,-0.02000000
'0:45.469',-0.22500000,-0.01500000
'0:45.472',-0.22500000,-0.02000000
'0:45.475',-0.22500000,-0.00500000
'0:45.478',-0.21000000,-0.02500000
'0:45.481',-0.23000000,-0.02500000
'0:45.483',-0.24500000,-0.04000000
'0:45.486',-0.26500000,-0.04000000
'0:45.489',-0.26000000,-0.02500000
'0:45.492',-0.24500000,-0.00500000
'0:45.494',-0.25000000,-0.01000000
'0:45.497',-0.25500000,-0.01000000
'0:45.500',-0.27000000,-0.02500000
'0:45.503',-0.28500000,-0.01500000
'0:45.506',-0.27500000,-0.00500000
'0:45.508',-0.27500000,0.00500000
'0:45.511',-0.26000000,0.00000000
'0:45.514',-0.25500000,-0.02000000
'0:45.517',-0.26500000,-0.02000000
'0:45.519',-0.27000000,-0.01500000
'0:45.522',-0.27000000,0.00000000
'0:45.525',-0.26000000,0.01500000
'0:45.528',-0.25500000,0.00000000
'0:45.531',-0.26000000,-0.00500000
'0:45.533',-0.26000000,-0.01000000
'0:45.536',-0.26000000,-0.02500000
'0:45.539',-0.26000000,-0.00500000
'0:45.542',-0.26000000,0.01500000
'0:45.544',-0.22500000,0.01000000
'0:45.547',-0.22500000,0.00000000
'0:45.550',-0.24000000,0.00000000
'0:45.553',-0.24500000,0.01500000
'0:45.556',-0.23500000,0.03000000
'0:45.558',-0.21500000,0.03500000
'0:45.561',-0.20500000,0.03500000
'0:45.564',-0.21000000,0.02000000
'0:45.567',-0.22500000,0.02000000
'0:45.569',-0.21500000,0.01000000
'0:45.572',-0.19500000,0.01500000
'0:45.575',-0.18500000,0.01500000
'0:45.578',-0.18000000,0.01500000
'0:45.581',-0.18500000,0.00500000
'0:45.583',-0.20000000,-0.00500000
'0:45.586',-0.19500000,-0.01000000
'0:45.589',-0.18500000,0.01500000
'0:45.592',-0.17500000,0.03000000
'0:45.594',-0.17000000,0.02500000
'0:45.597',-0.17000000,0.02000000
'0:45.600',-0.18000000,0.01000000
'0:45.603',-0.19000000,0.01000000
'0:45.606',-0.19500000,0.01500000
'0:45.608',-0.18000000,0.02500000
'0:45.611',-0.17000000,0.01500000
'0:45.614',-0.17000000,0.00500000
'0:45.617',-0.19000000,0.00000000
'0:45.619',-0.19500000,0.00500000
'0:45.622',-0.19000000,0.01500000
'0:45.625',-0.17500000,0.01500000
'0:45.628',-0.17000000,0.00000000
'0:45.631',-0.18500000,0.00000000
'0:45.633',-0.20000000,-0.00500000
'0:45.636',-0.22000000,-0.00500000
'0:45.639',-0.20500000,0.01000000
'0:45.642',-0.20500000,0.02500000
'0:45.644',-0.19000000,0.01000000
'0:45.647',-0.20000000,-0.00500000
'0:45.650',-0.22500000,-0.02000000
'0:45.653',-0.22500000,-0.01500000
'0:45.656',-0.23000000,0.00000000
'0:45.658',-0.23500000,0.01500000
'0:45.661',-0.21500000,0.01000000
'0:45.664',-0.22500000,-0.00500000
'0:45.667',-0.24000000,-0.01500000
'0:45.669',-0.25000000,-0.01000000
'0:45.672',-0.24500000,0.00000000
'0:45.675',-0.24000000,0.00000000
'0:45.678',-0.23000000,-0.00500000
'0:45.681',-0.24000000,-0.00500000
'0:45.683',-0.25500000,-0.02500000
'0:45.686',-0.26500000,-0.02500000
'0:45.689',-0.26000000,-0.01000000
'0:45.692',-0.25000000,0.00500000
'0:45.694',-0.24000000,0.00000000
'0:45.697',-0.25000000,0.00500000
'0:45.700',-0.26500000,-0.02000000
'0:45.703',-0.26500000,0.00500000
'0:45.706',-0.27000000,0.00500000
'0:45.708',-0.24500000,0.02000000
'0:45.711',-0.25000000,0.00000000
'0:45.714',-0.26500000,-0.02000000
'0:45.717',-0.26500000,-0.03000000
'0:45.719',-0.28000000,-0.02500000
'0:45.722',-0.27000000,-0.00500000
'0:45.725',-0.26500000,0.01500000
'0:45.728',-0.26500000,0.00500000
'0:45.731',-0.27000000,0.00000000
'0:45.733',-0.27500000,-0.01500000
'0:45.736',-0.29500000,-0.00500000
'0:45.739',-0.28000000,0.00000000
'0:45.742',-0.27000000,0.00500000
'0:45.744',-0.26500000,0.00000000
'0:45.747',-0.27000000,-0.01000000
'0:45.750',-0.29000000,-0.02500000
'0:45.753',-0.30000000,-0.01500000
'0:45.756',-0.29500000,0.01000000
'0:45.758',-0.27500000,0.01000000
'0:45.761',-0.26500000,0.01000000
'0:45.764',-0.28000000,-0.01000000
'0:45.767',-0.29000000,-0.02000000
'0:45.769',-0.30000000,-0.01000000
'0:45.772',-0.30500000,-0.01500000
'0:45.775',-0.29000000,0.01500000
'0:45.778',-0.27500000,0.00000000
'0:45.781',-0.29500000,0.00000000
'0:45.783',-0.29500000,-0.02500000
'0:45.786',-0.30000000,-0.02500000
'0:45.789',-0.29500000,-0.01000000
'0:45.792',-0.28000000,0.00500000
'0:45.794',-0.28000000,0.00000000
'0:45.797',-0.29000000,-0.01000000
'0:45.800',-0.29500000,-0.02000000
'0:45.803',-0.31000000,0.00500000
'0:45.806',-0.29500000,-0.01000000
'0:45.808',-0.29000000,0.01500000
'0:45.811',-0.28000000,0.01000000
'0:45.814',-0.29000000,-0.00500000
'0:45.817',-0.29500000,-0.00500000
'0:45.819',-0.29500000,-0.01500000
'0:45.822',-0.29000000,0.00000000
'0:45.825',-0.30000000,0.01000000
'0:45.828',-0.29000000,0.00000000
'0:45.831',-0.28000000,0.00000000
'0:45.833',-0.31000000,-0.00500000
'0:45.836',-0.30000000,-0.01000000
'0:45.839',-0.29000000,0.00500000
'0:45.842',-0.29000000,0.01000000
'0:45.844',-0.29500000,0.00500000
'0:45.847',-0.28500000,-0.00500000
'0:45.850',-0.29500000,-0.02000000
'0:45.853',-0.30500000,0.00000000
'0:45.856',-0.31000000,0.00500000
'0:45.858',-0.29000000,0.02000000
'0:45.861',-0.28500000,0.02000000
'0:45.864',-0.28500000,0.03000000
'0:45.867',-0.30500000,0.01000000
'0:45.869',-0.30500000,-0.00500000
'0:45.872',-0.30500000,0.01500000
'0:45.875',-0.28000000,0.02000000
'0:45.878',-0.28000000,0.00000000
'0:45.881',-0.28000000,-0.00500000
'0:45.883',-0.30000000,-0.01500000
'0:45.886',-0.31000000,0.00500000
'0:45.889',-0.31500000,0.00000000
'0:45.892',-0.30500000,0.02500000
'0:45.894',-0.27500000,0.02000000
'0:45.897',-0.28500000,0.00500000
'0:45.900',-0.30000000,-0.00500000
'0:45.903',-0.30500000,-0.01000000
'0:45.906',-0.29500000,0.01000000
'0:45.908',-0.27500000,0.03500000
'0:45.911',-0.27000000,0.01000000
'0:45.914',-0.27500000,0.01500000
'0:45.917',-0.29000000,0.00500000
'0:45.919',-0.29500000,0.02000000
'0:45.922',-0.28500000,0.02000000
'0:45.925',-0.27000000,0.02500000
'0:45.928',-0.26500000,0.00500000
'0:45.931',-0.26000000,-0.02000000
'0:45.933',-0.29000000,-0.03500000
'0:45.936',-0.28000000,-0.01000000
'0:45.939',-0.28000000,0.02000000
'0:45.942',-0.27000000,0.03500000
'0:45.944',-0.26000000,0.03500000
'0:45.947',-0.25500000,0.01000000
'0:45.950',-0.27000000,0.00500000
'0:45.953',-0.28000000,0.01500000
'0:45.956',-0.27000000,0.01000000
'0:45.958',-0.26000000,0.03500000
'0:45.961',-0.25000000,0.02500000
'0:45.964',-0.25000000,0.00000000
'0:45.967',-0.26500000,-0.00500000
'0:45.969',-0.25000000,-0.00500000
'0:45.972',-0.24000000,0.01000000
'0:45.975',-0.21500000,0.04000000
'0:45.978',-0.21000000,0.01500000
'0:45.981',-0.20500000,0.01500000
'0:45.983',-0.21000000,0.00000000
'0:45.986',-0.20500000,0.01000000
'0:45.989',-0.18500000,0.02000000
'0:45.992',-0.16000000,0.05500000
'0:45.994',-0.15000000,0.07000000
'0:45.997',-0.14500000,0.07000000
'0:46.000',-0.16000000,0.06500000
'0:46.003',-0.15000000,0.04500000
'0:46.006',-0.12500000,0.05000000
'0:46.008',-0.09500000,0.04500000
'0:46.011',-0.06000000,0.01500000
'0:46.014',-0.05000000,-0.01500000
'0:46.017',-0.07500000,-0.03000000
'0:46.019',-0.06500000,-0.01500000
'0:46.022',-0.08500000,0.01000000
'0:46.025',-0.08000000,0.04000000
'0:46.028',-0.09500000,0.05000000
'0:46.031',-0.09500000,0.04500000
'0:46.033',-0.11500000,0.01500000
'0:46.036',-0.13000000,-0.02000000
'0:46.039',-0.12500000,-0.02000000
'0:46.042',-0.12500000,-0.01000000
'0:46.044',-0.14000000,0.00000000
'0:46.047',-0.15500000,-0.00500000
'0:46.050',-0.18500000,-0.00500000
'0:46.053',-0.20500000,0.01000000
'0:46.056',-0.20500000,0.03000000
'0:46.058',-0.20500000,0.04500000
'0:46.061',-0.18500000,0.01500000
'0:46.064',-0.19000000,0.00500000
'0:46.067',-0.20500000,-0.00500000
'0:46.069',-0.20500000,0.01000000
'0:46.072',-0.20000000,0.02000000
'0:46.075',-0.18500000,0.03000000
'0:46.078',-0.17500000,0.03000000
'0:46.081',-0.17500000,0.03000000
'0:46.083',-0.18500000,0.01500000
'0:46.086',-0.18000000,0.01000000
'0:46.089',-0.16500000,0.01500000
'0:46.092',-0.15000000,0.02500000
'0:46.094',-0.13500000,0.01000000
'0:46.097',-0.13000000,-0.00500000
'0:46.100',-0.13500000,-0.02500000
'0:46.103',-0.11500000,-0.03500000
'0:46.106',-0.04500000,-0.04000000
'0:46.108',0.06000000,-0.01500000
'0:46.111',0.21500000,-0.01500000
'0:46.114',0.38500000,-0.02000000
'0:46.117',0.56000000,-0.03500000
'0:46.119',0.72000000,0.02000000
'0:46.122',0.82500000,0.12500000
'0:46.125',0.89000000,0.23000000
'0:46.128',0.88000000,0.29500000
'0:46.131',0.85000000,0.33000000
'0:46.133',0.74500000,0.32500000
'0:46.136',0.58000000,0.30000000
'0:46.139',0.36000000,0.24000000
'0:46.142',0.11500000,0.14500000
'0:46.144',-0.07000000,0.02500000
'0:46.147',-0.15500000,-0.10500000
'0:46.150',-0.15000000,-0.19000000
'0:46.153',-0.14500000,-0.21500000
'0:46.156',-0.17000000,-0.17000000
'0:46.158',-0.17500000,-0.11500000
'0:46.161',-0.18500000,-0.07000000
'0:46.164',-0.21500000,-0.05000000
'0:46.167',-0.23500000,-0.03000000
'0:46.169',-0.25500000,-0.00500000
'0:46.172',-0.26500000,0.01000000
'0:46.175',-0.28500000,0.01500000
'0:46.178',-0.26000000,0.01000000
'0:46.181',-0.28500000,0.01500000
'0:46.183',-0.32000000,0.00500000
'0:46.186',-0.32000000,0.01000000
'0:46.189',-0.33000000,0.03500000
'0:46.192',-0.32500000,0.05500000
'0:46.194',-0.31500000,0.03000000
'0:46.197',-0.32000000,0.03500000
'0:46.200',-0.34500000,0.03500000
'0:46.203',-0.35000000,0.04000000
'0:46.206',-0.34500000,0.04500000
'0:46.208',-0.32500000,0.05500000
'0:46.211',-0.32500000,0.05500000
'0:46.214',-0.33500000,0.04000000
'0:46.217',-0.35000000,0.03500000
'0:46.219',-0.35500000,0.04000000
'0:46.222',-0.35500000,0.05000000
'0:46.225',-0.34500000,0.05000000
'0:46.228',-0.33500000,0.02500000
'0:46.231',-0.34000000,0.02500000
'0:46.233',-0.36500000,0.00500000
'0:46.236',-0.36000000,0.03000000
'0:46.239',-0.35000000,0.04000000
'0:46.242',-0.34000000,0.05000000
'0:46.244',-0.34000000,0.04000000
'0:46.247',-0.33500000,0.03500000
'0:46.250',-0.34500000,0.02000000
'0:46.253',-0.35000000,0.02000000
'0:46.256',-0.34000000,0.04500000
'0:46.258',-0.32000000,0.06500000
'0:46.261',-0.31000000,0.04500000
'0:46.264',-0.31000000,0.03500000
'0:46.267',-0.32000000,0.02500000
'0:46.269',-0.34000000,0.02000000
'0:46.272',-0.32500000,0.04000000
'0:46.275',-0.30500000,0.05000000
'0:46.278',-0.29000000,0.04500000
'0:46.281',-0.30500000,0.05000000
'0:46.283',-0.31000000,0.03500000
'0:46.286',-0.30500000,0.03000000
'0:46.289',-0.29000000,0.03000000
'0:46.292',-0.27000000,0.04500000
'0:46.294',-0.25500000,0.03000000
'0:46.297',-0.26000000,0.03500000
'0:46.300',-0.25500000,0.02000000
'0:46.303',-0.26500000,0.01500000
'0:46.306',-0.25000000,0.02000000
'0:46.308',-0.24000000,0.05000000
'0:46.311',-0.21000000,0.03500000
'0:46.314',-0.22500000,0.03000000
'0:46.317',-0.21500000,0.02500000
'0:46.319',-0.21500000,0.02000000
'0:46.322',-0.21500000,0.05500000
'0:46.325',-0.18500000,0.04500000
'0:46.328',-0.16500000,0.04000000
'0:46.331',-0.15000000,0.02500000
'0:46.333',-0.16500000,0.02000000
'0:46.336',-0.15500000,0.01000000
'0:46.339',-0.14000000,0.02500000
'0:46.342',-0.11000000,0.03500000
'0:46.344',-0.08500000,0.02500000
'0:46.347',-0.08000000,0.02000000
'0:46.350',-0.09000000,0.00500000
'0:46.353',-0.08500000,0.01000000
'0:46.356',-0.06000000,0.01500000
'0:46.358',-0.04000000,0.03500000
'0:46.361',-0.02000000,0.02000000
'0:46.364',-0.00500000,0.01500000
'0:46.367',-0.02000000,0.00000000
'0:46.369',-0.01000000,-0.01500000
'0:46.372',0.00500000,-0.01000000
'0:46.375',0.03500000,0.00000000
'0:46.378',0.04000000,-0.00500000
'0:46.381',0.06500000,-0.02500000
'0:46.383',0.05500000,-0.03500000
'0:46.386',0.04000000,-0.03000000
'0:46.389',0.05000000,-0.01500000
'0:46.392',0.07000000,-0.00500000
'0:46.394',0.09500000,-0.01500000
'0:46.397',0.09000000,-0.03500000
'0:46.400',0.07000000,-0.03500000
'0:46.403',0.07000000,-0.03500000
'0:46.406',0.07000000,-0.02500000
'0:46.408',0.08000000,-0.00500000
'0:46.411',0.08000000,-0.01000000
'0:46.414',0.07500000,-0.00500000
'0:46.417',0.05500000,-0.01500000
'0:46.419',0.04500000,-0.01500000
'0:46.422',0.04500000,-0.01000000
'0:46.425',0.05000000,0.00000000
'0:46.428',0.03500000,0.00500000
'0:46.431',0.01000000,-0.01000000
'0:46.433',0.00500000,-0.02500000
'0:46.436',-0.04000000,-0.00500000
'0:46.439',-0.03500000,0.00000000
'0:46.442',-0.04000000,0.02500000
'0:46.444',-0.04000000,0.02000000
'0:46.447',-0.07500000,0.01000000
'0:46.450',-0.09500000,0.00500000
'0:46.453',-0.12000000,0.00500000
'0:46.456',-0.12000000,0.01000000
'0:46.458',-0.11500000,0.02500000
'0:46.461',-0.14000000,0.02500000
'0:46.464',-0.14500000,0.02000000
'0:46.467',-0.18000000,0.00500000
'0:46.469',-0.19000000,0.00500000
'0:46.472',-0.19000000,0.01000000
'0:46.475',-0.20000000,0.02500000
'0:46.478',-0.19000000,0.02500000
'0:46.481',-0.22000000,0.02000000
'0:46.483',-0.24500000,-0.00500000
'0:46.486',-0.26000000,-0.01000000
'0:46.489',-0.24500000,0.01500000
'0:46.492',-0.25500000,0.02000000
'0:46.494',-0.24500000,0.01000000
'0:46.497',-0.27000000,0.02000000
'0:46.500',-0.28500000,-0.00500000
'0:46.503',-0.27000000,0.01500000
'0:46.506',-0.26500000,0.02500000
'0:46.508',-0.27000000,0.04500000
'0:46.511',-0.26000000,0.03000000
'0:46.514',-0.27500000,0.03500000
'0:46.517',-0.28500000,0.01500000
'0:46.519',-0.30000000,0.01000000
'0:46.522',-0.29500000,0.01000000
'0:46.525',-0.28500000,0.02000000
'0:46.528',-0.28000000,0.01000000
'0:46.531',-0.27500000,0.01500000
'0:46.533',-0.30000000,0.00000000
'0:46.536',-0.30500000,0.00000000
'0:46.539',-0.30000000,0.02000000
'0:46.542',-0.28500000,0.04000000
'0:46.544',-0.27000000,0.04000000
'0:46.547',-0.27500000,0.02500000
'0:46.550',-0.29000000,0.00500000
'0:46.553',-0.28500000,0.01500000
'0:46.556',-0.27500000,0.02500000
'0:46.558',-0.26000000,0.04000000
'0:46.561',-0.25000000,0.04000000
'0:46.564',-0.26000000,0.03500000
'0:46.567',-0.27000000,0.03000000
'0:46.569',-0.28000000,0.02500000
'0:46.572',-0.27000000,0.03500000
'0:46.575',-0.25000000,0.04500000
'0:46.578',-0.25000000,0.05500000
'0:46.581',-0.27000000,0.04500000
'0:46.583',-0.27500000,0.03000000
'0:46.586',-0.26500000,0.03500000
'0:46.589',-0.26500000,0.05000000
'0:46.592',-0.24500000,0.06500000
'0:46.594',-0.24000000,0.05500000
'0:46.597',-0.24500000,0.04000000
'0:46.600',-0.23500000,0.05000000
'0:46.603',-0.25500000,0.04500000
'0:46.606',-0.25000000,0.07000000
'0:46.608',-0.23500000,0.06500000
'0:46.611',-0.21500000,0.06000000
'0:46.614',-0.22000000,0.03500000
'0:46.617',-0.24000000,0.01000000
'0:46.619',-0.24500000,0.01500000
'0:46.622',-0.22500000,0.03500000
'0:46.625',-0.22500000,0.05000000
'0:46.628',-0.22500000,0.05000000
'0:46.631',-0.22000000,0.04000000
'0:46.633',-0.23000000,0.02000000
'0:46.636',-0.24000000,0.03000000
'0:46.639',-0.24000000,0.05500000
'0:46.642',-0.21000000,0.05000000
'0:46.644',-0.20000000,0.05500000
'0:46.647',-0.21500000,0.03000000
'0:46.650',-0.22500000,0.02500000
'0:46.653',-0.24000000,0.02000000
'0:46.656',-0.23500000,0.03500000
'0:46.658',-0.22000000,0.04000000
'0:46.661',-0.22000000,0.04500000
'0:46.664',-0.22000000,0.03500000
'0:46.667',-0.23500000,0.02000000
'0:46.669',-0.25500000,0.02500000
'0:46.672',-0.25500000,0.04500000
'0:46.675',-0.24000000,0.05500000
'0:46.678',-0.23500000,0.06000000
'0:46.681',-0.23500000,0.05500000
'0:46.683',-0.26000000,0.04000000
'0:46.686',-0.27000000,0.02500000
'0:46.689',-0.26500000,0.03500000
'0:46.692',-0.26000000,0.04500000
'0:46.694',-0.25500000,0.05000000
'0:46.697',-0.26000000,0.04500000
'0:46.700',-0.26500000,0.03500000
'0:46.703',-0.28000000,0.04000000
'0:46.706',-0.27000000,0.03500000
'0:46.708',-0.26000000,0.03500000
'0:46.711',-0.25500000,0.03000000
'0:46.714',-0.26500000,0.01500000
'0:46.717',-0.29000000,0.00500000
'0:46.719',-0.29500000,0.02000000
'0:46.722',-0.29000000,0.02500000
'0:46.725',-0.28000000,0.03000000
'0:46.728',-0.27000000,0.01500000
'0:46.731',-0.29000000,0.01500000
'0:46.733',-0.30500000,0.01000000
'0:46.736',-0.30500000,0.00500000
'0:46.739',-0.30000000,0.02500000
'0:46.742',-0.28500000,0.03500000
'0:46.744',-0.28000000,0.03500000
'0:46.747',-0.29000000,0.03500000
'0:46.750',-0.30000000,0.02500000
'0:46.753',-0.31000000,0.03500000
'0:46.756',-0.32500000,0.03000000
'0:46.758',-0.30000000,0.04500000
'0:46.761',-0.28500000,0.02000000
'0:46.764',-0.29000000,0.00500000
'0:46.767',-0.31000000,-0.00500000
'0:46.769',-0.31500000,-0.01000000
'0:46.772',-0.31000000,0.01000000
'0:46.775',-0.29000000,0.01500000
'0:46.778',-0.30000000,0.02000000
'0:46.781',-0.30500000,0.02500000
'0:46.783',-0.31500000,0.01000000
'0:46.786',-0.32500000,0.01000000
'0:46.789',-0.31500000,0.02500000
'0:46.792',-0.31000000,0.04000000
'0:46.794',-0.30500000,0.02500000
'0:46.797',-0.31500000,0.03000000
'0:46.800',-0.32500000,0.02500000
'0:46.803',-0.33000000,0.01500000
'0:46.806',-0.32500000,0.02000000
'0:46.808',-0.32500000,0.03500000
'0:46.811',-0.31000000,0.03500000
'0:46.814',-0.31500000,0.03000000
'0:46.817',-0.34000000,0.00000000
'0:46.819',-0.34000000,0.00000000
'0:46.822',-0.33500000,0.01500000
'0:46.825',-0.33500000,0.03500000
'0:46.828',-0.31500000,0.03500000
'0:46.831',-0.31000000,0.02500000
'0:46.833',-0.34000000,0.02000000
'0:46.836',-0.35000000,0.01000000
'0:46.839',-0.33500000,0.03500000
'0:46.842',-0.32000000,0.03500000
'0:46.844',-0.32000000,0.03000000
'0:46.847',-0.33000000,0.04000000
'0:46.850',-0.34000000,0.02500000
'0:46.853',-0.35500000,0.03000000
'0:46.856',-0.34500000,0.04000000
'0:46.858',-0.32000000,0.05500000
'0:46.861',-0.32500000,0.04000000
'0:46.864',-0.32500000,0.01000000
'0:46.867',-0.34500000,-0.01500000
'0:46.869',-0.37000000,-0.02000000
'0:46.872',-0.35500000,-0.00500000
'0:46.875',-0.35000000,0.00500000
'0:46.878',-0.31500000,0.00000000
'0:46.881',-0.33000000,-0.01000000
'0:46.883',-0.33500000,-0.00500000
'0:46.886',-0.36500000,-0.01500000
'0:46.889',-0.35000000,0.01000000
'0:46.892',-0.34500000,0.02000000
'0:46.894',-0.33000000,0.03000000
'0:46.897',-0.34500000,0.02500000
'0:46.900',-0.35000000,0.00500000
'0:46.903',-0.36500000,0.01000000
'0:46.906',-0.36500000,0.01500000
'0:46.908',-0.34000000,0.04000000
'0:46.911',-0.34000000,0.02000000
'0:46.914',-0.35000000,0.01500000
'0:46.917',-0.36000000,0.00500000
'0:46.919',-0.37000000,0.00500000
'0:46.922',-0.37000000,0.01500000
'0:46.925',-0.36000000,0.04000000
'0:46.928',-0.35000000,0.02500000
'0:46.931',-0.36000000,0.00000000
'0:46.933',-0.37000000,0.00000000
'0:46.936',-0.38500000,0.00500000
'0:46.939',-0.37000000,0.02500000
'0:46.942',-0.35500000,0.03000000
'0:46.944',-0.35500000,0.02000000
'0:46.947',-0.36500000,0.01500000
'0:46.950',-0.38500000,0.01500000
'0:46.953',-0.39500000,0.01500000
'0:46.956',-0.39000000,0.01500000
'0:46.958',-0.36500000,0.02500000
'0:46.961',-0.38500000,0.01500000
'0:46.964',-0.38000000,0.01000000
'0:46.967',-0.39000000,0.01000000
'0:46.969',-0.40500000,0.01500000
'0:46.972',-0.39500000,0.03000000
'0:46.975',-0.39500000,0.04000000
'0:46.978',-0.39000000,0.04000000
'0:46.981',-0.41000000,0.02500000
'0:46.983',-0.41500000,0.00500000
'0:46.986',-0.41500000,0.01500000
'0:46.989',-0.43000000,0.03000000
'0:46.992',-0.42500000,0.03000000
'0:46.994',-0.42000000,0.04000000
'0:46.997',-0.42000000,0.01000000
'0:47.000',-0.44000000,0.02000000
'0:47.003',-0.44000000,0.02000000
'0:47.006',-0.43500000,0.04500000
'0:47.008',-0.42000000,0.07000000
'0:47.011',-0.41500000,0.05000000
'0:47.014',-0.42000000,0.03000000
'0:47.017',-0.44000000,0.02000000
'0:47.019',-0.44000000,0.02500000
'0:47.022',-0.42500000,0.03500000
'0:47.025',-0.42000000,0.04500000
'0:47.028',-0.41500000,0.03500000
'0:47.031',-0.41500000,0.03000000
'0:47.033',-0.42500000,0.01500000
'0:47.036',-0.43000000,0.00500000
'0:47.039',-0.42500000,0.02500000
'0:47.042',-0.40500000,0.05500000
'0:47.044',-0.40500000,0.04000000
'0:47.047',-0.41500000,0.02000000
'0:47.050',-0.43000000,0.01000000
'0:47.053',-0.42500000,0.01000000
'0:47.056',-0.41500000,0.03000000
'0:47.058',-0.38500000,0.04500000
'0:47.061',-0.37000000,0.04000000
'0:47.064',-0.37000000,0.03500000
'0:47.067',-0.38000000,0.02000000
'0:47.069',-0.38500000,0.03500000
'0:47.072',-0.37000000,0.04000000
'0:47.075',-0.33500000,0.06000000
'0:47.078',-0.31000000,0.09000000
'0:47.081',-0.32500000,0.08500000
'0:47.083',-0.33500000,0.08000000
'0:47.086',-0.32000000,0.08500000
'0:47.089',-0.30500000,0.08500000
'0:47.092',-0.27500000,0.08500000
'0:47.094',-0.25000000,0.08000000
'0:47.097',-0.22000000,0.05500000
'0:47.100',-0.23500000,0.01500000
'0:47.103',-0.22500000,-0.03000000
'0:47.106',-0.22000000,-0.03500000
'0:47.108',-0.21500000,-0.01500000
'0:47.111',-0.22500000,-0.00500000
'0:47.114',-0.24000000,0.00000000
'0:47.117',-0.25500000,-0.00500000
'0:47.119',-0.26000000,-0.00500000
'0:47.122',-0.25500000,-0.01000000
'0:47.125',-0.24500000,-0.01500000
'0:47.128',-0.26500000,-0.00500000
'0:47.131',-0.26000000,0.00000000
'0:47.133',-0.29500000,-0.01500000
'0:47.136',-0.31500000,-0.02500000
'0:47.139',-0.30500000,-0.01000000
'0:47.142',-0.30500000,-0.00500000
'0:47.144',-0.29000000,0.00000000
'0:47.147',-0.29500000,-0.01000000
'0:47.150',-0.31000000,-0.02500000
'0:47.153',-0.32000000,-0.01500000
'0:47.156',-0.29000000,-0.01500000
'0:47.158',-0.27500000,0.00500000
'0:47.161',-0.27000000,0.00500000
'0:47.164',-0.27000000,-0.01000000
'0:47.167',-0.28000000,-0.02000000
'0:47.169',-0.26000000,-0.00500000
'0:47.172',-0.26500000,0.01000000
'0:47.175',-0.23500000,0.03000000
'0:47.178',-0.21500000,0.01000000
'0:47.181',-0.20500000,-0.01000000
'0:47.183',-0.21000000,-0.05500000
'0:47.186',-0.21000000,-0.06000000
'0:47.189',-0.18500000,-0.07500000
'0:47.192',-0.13500000,-0.06000000
'0:47.194',-0.06000000,-0.06000000
'0:47.197',0.02500000,-0.05000000
'0:47.200',0.15500000,-0.04000000
'0:47.203',0.33000000,-0.05500000
'0:47.206',0.51000000,-0.04000000
'0:47.208',0.67500000,0.00500000
'0:47.211',0.79500000,0.05500000
'0:47.214',0.84000000,0.07500000
'0:47.217',0.86500000,0.11000000
'0:47.219',0.83000000,0.16000000
'0:47.222',0.79000000,0.18000000
'0:47.225',0.68500000,0.19500000
'0:47.228',0.50500000,0.13000000
'0:47.231',0.27500000,0.08000000
'0:47.233',0.02000000,0.01000000
'0:47.236',-0.14000000,-0.05500000
'0:47.239',-0.19500000,-0.11500000
'0:47.242',-0.18000000,-0.16000000
'0:47.244',-0.16500000,-0.21000000
'0:47.247',-0.19000000,-0.23500000
'0:47.250',-0.22500000,-0.22000000
'0:47.253',-0.24000000,-0.18000000
'0:47.256',-0.24500000,-0.13000000
'0:47.258',-0.24000000,-0.08000000
'0:47.261',-0.23500000,-0.06500000
'0:47.264',-0.27500000,-0.06500000
'0:47.267',-0.27000000,-0.06000000
'0:47.269',-0.29000000,-0.06500000
'0:47.272',-0.28000000,-0.04500000
'0:47.275',-0.27500000,-0.03000000
'0:47.278',-0.27500000,-0.02500000
'0:47.281',-0.30000000,-0.04500000
'0:47.283',-0.30500000,-0.05000000
'0:47.286',-0.31500000,-0.03500000
'0:47.289',-0.30500000,-0.02500000
'0:47.292',-0.29000000,-0.01500000
'0:47.294',-0.29000000,-0.04000000
'0:47.297',-0.29500000,-0.04000000
'0:47.300',-0.32000000,-0.05500000
'0:47.303',-0.32000000,-0.04000000
'0:47.306',-0.31000000,-0.01500000
'0:47.308',-0.29500000,0.00500000
'0:47.311',-0.28500000,0.00000000
'0:47.314',-0.29000000,-0.01000000
'0:47.317',-0.30500000,-0.02500000
'0:47.319',-0.30500000,-0.01500000
'0:47.322',-0.29500000,-0.01500000
'0:47.325',-0.28000000,-0.00500000
'0:47.328',-0.26500000,-0.00500000
'0:47.331',-0.28000000,-0.02000000
'0:47.333',-0.28500000,-0.03500000
'0:47.336',-0.30500000,-0.03500000
'0:47.339',-0.27500000,-0.03500000
'0:47.342',-0.26000000,-0.01500000
'0:47.344',-0.26000000,-0.00500000
'0:47.347',-0.26000000,-0.02000000
'0:47.350',-0.26500000,-0.04000000
'0:47.353',-0.26000000,-0.03000000
'0:47.356',-0.26000000,-0.01000000
'0:47.358',-0.23500000,-0.00500000
'0:47.361',-0.22500000,-0.00500000
'0:47.364',-0.23000000,-0.00500000
'0:47.367',-0.24000000,-0.01500000
'0:47.369',-0.23500000,-0.02500000
'0:47.372',-0.22500000,-0.03000000
'0:47.375',-0.21500000,-0.01500000
'0:47.378',-0.19500000,-0.02000000
'0:47.381',-0.19500000,-0.03000000
'0:47.383',-0.20000000,-0.03500000
'0:47.386',-0.21000000,-0.04000000
'0:47.389',-0.18500000,-0.03500000
'0:47.392',-0.15500000,-0.01500000
'0:47.394',-0.15000000,-0.01500000
'0:47.397',-0.14500000,-0.03000000
'0:47.400',-0.15000000,-0.02500000
'0:47.403',-0.16000000,-0.02500000
'0:47.406',-0.13000000,-0.00500000
'0:47.408',-0.10500000,0.02000000
'0:47.411',-0.10000000,0.03000000
'0:47.414',-0.10000000,0.03500000
'0:47.417',-0.10500000,0.00500000
'0:47.419',-0.10500000,-0.02000000
'0:47.422',-0.08500000,-0.03500000
'0:47.425',-0.06500000,-0.00500000
'0:47.428',-0.05000000,0.01000000
'0:47.431',-0.04500000,-0.00500000
'0:47.433',-0.04000000,-0.00500000
'0:47.436',-0.03000000,-0.01000000
'0:47.439',-0.03000000,-0.04500000
'0:47.442',0.00500000,-0.04500000
'0:47.444',0.02000000,-0.06500000
'0:47.447',0.03000000,-0.06000000
'0:47.450',0.03500000,-0.06500000
'0:47.453',0.02000000,-0.07000000
'0:47.456',0.05000000,-0.06000000
'0:47.458',0.09000000,-0.05500000
'0:47.461',0.10000000,-0.04000000
'0:47.464',0.11500000,-0.04000000
'0:47.467',0.12000000,-0.02000000
'0:47.469',0.12000000,-0.00500000
'0:47.472',0.12500000,0.00500000
'0:47.475',0.15000000,0.03000000
'0:47.478',0.18000000,0.02000000
'0:47.481',0.18500000,0.00500000
'0:47.483',0.18500000,-0.03500000
'0:47.486',0.18500000,-0.05000000
'0:47.489',0.19000000,-0.07500000
'0:47.492',0.20000000,-0.10000000
'0:47.494',0.20500000,-0.10500000
'0:47.497',0.21500000,-0.11500000
'0:47.500',0.21000000,-0.11500000
'0:47.503',0.18500000,-0.10000000
'0:47.506',0.20000000,-0.10000000
'0:47.508',0.20000000,-0.07500000
'0:47.511',0.20000000,-0.07500000
'0:47.514',0.21000000,-0.08500000
'0:47.517',0.17000000,-0.10000000
'0:47.519',0.13500000,-0.08500000
'0:47.522',0.13500000,-0.04000000
'0:47.525',0.14000000,-0.03500000
'0:47.528',0.13000000,-0.04500000
'0:47.531',0.12500000,-0.07500000
'0:47.533',0.09500000,-0.08500000
'0:47.536',0.07000000,-0.08000000
'0:47.539',0.06500000,-0.04000000
'0:47.542',0.04000000,-0.02500000
'0:47.544',0.06000000,-0.02000000
'0:47.547',0.03000000,-0.03000000
'0:47.550',0.01000000,-0.04000000
'0:47.553',-0.00500000,-0.02000000
'0:47.556',-0.02500000,-0.00500000
'0:47.558',-0.02000000,-0.01500000
'0:47.561',-0.03000000,-0.02000000
'0:47.564',-0.05500000,-0.04500000
'0:47.567',-0.06500000,-0.06000000
'0:47.569',-0.08500000,-0.06000000
'0:47.572',-0.08500000,-0.05500000
'0:47.575',-0.09000000,-0.03000000
'0:47.578',-0.09500000,-0.04500000
'0:47.581',-0.10000000,-0.04500000
'0:47.583',-0.13000000,-0.07000000
'0:47.586',-0.13000000,-0.04000000
'0:47.589',-0.13000000,-0.02500000
'0:47.592',-0.14000000,-0.00500000
'0:47.594',-0.15000000,-0.01000000
'0:47.597',-0.14500000,-0.01500000
'0:47.600',-0.16000000,-0.04000000
'0:47.603',-0.18500000,-0.05000000
'0:47.606',-0.18500000,-0.03500000
'0:47.608',-0.15000000,-0.00500000
'0:47.611',-0.15500000,0.00000000
'0:47.614',-0.17000000,-0.01000000
'0:47.617',-0.18500000,-0.01500000
'0:47.619',-0.19500000,-0.01000000
'0:47.622',-0.19500000,0.00000000
'0:47.625',-0.16500000,0.01500000
'0:47.628',-0.17000000,-0.00500000
'0:47.631',-0.18000000,-0.02000000
'0:47.633',-0.18000000,-0.04000000
'0:47.636',-0.19500000,-0.04500000
'0:47.639',-0.20000000,-0.04000000
'0:47.642',-0.17500000,-0.02500000
'0:47.644',-0.16500000,-0.01500000
'0:47.647',-0.16500000,-0.02000000
'0:47.650',-0.18000000,-0.02500000
'0:47.653',-0.19000000,-0.02000000
'0:47.656',-0.18000000,0.00500000
'0:47.658',-0.16000000,0.03000000
'0:47.661',-0.16000000,0.02000000
'0:47.664',-0.16000000,-0.00500000
'0:47.667',-0.15500000,-0.02000000
'0:47.669',-0.16500000,-0.03000000
'0:47.672',-0.14500000,-0.00500000
'0:47.675',-0.13500000,-0.00500000
'0:47.678',-0.13000000,-0.01000000
'0:47.681',-0.13000000,-0.01500000
'0:47.683',-0.13500000,-0.02500000
'0:47.686',-0.14000000,-0.01000000
'0:47.689',-0.14000000,0.00000000
'0:47.692',-0.11500000,0.01500000
'0:47.694',-0.10500000,0.00000000
'0:47.697',-0.12000000,-0.00500000
'0:47.700',-0.12500000,-0.02500000
'0:47.703',-0.14000000,-0.01500000
'0:47.706',-0.12500000,-0.00500000
'0:47.708',-0.11000000,0.01000000
'0:47.711',-0.10000000,0.00000000
'0:47.714',-0.10500000,0.00000000
'0:47.717',-0.10500000,-0.00500000
'0:47.719',-0.12500000,-0.01000000
'0:47.722',-0.11000000,0.00500000
'0:47.725',-0.09000000,0.02000000
'0:47.728',-0.08500000,0.02500000
'0:47.731',-0.08000000,0.01500000
'0:47.733',-0.10500000,0.01000000
'0:47.736',-0.12000000,-0.01000000
'0:47.739',-0.11500000,0.00500000
'0:47.742',-0.09500000,0.01000000
'0:47.744',-0.09000000,0.01000000
'0:47.747',-0.08500000,0.00500000
'0:47.750',-0.11000000,-0.02000000
'0:47.753',-0.11000000,-0.00500000
'0:47.756',-0.11500000,0.00500000
'0:47.758',-0.10500000,0.01500000
'0:47.761',-0.11000000,0.01000000
'0:47.764',-0.11000000,0.00000000
'0:47.767',-0.12500000,-0.01500000
'0:47.769',-0.13500000,-0.00500000
'0:47.772',-0.14000000,0.00000000
'0:47.775',-0.13000000,0.00500000
'0:47.778',-0.12500000,-0.00500000
'0:47.781',-0.13000000,-0.01000000
'0:47.783',-0.14000000,-0.02000000
'0:47.786',-0.15500000,-0.01000000
'0:47.789',-0.15000000,0.00000000
'0:47.792',-0.14500000,0.01000000
'0:47.794',-0.14500000,0.00500000
'0:47.797',-0.15500000,-0.01000000
'0:47.800',-0.18000000,-0.02000000
'0:47.803',-0.18500000,-0.02000000
'0:47.806',-0.17500000,-0.01500000
'0:47.808',-0.17000000,0.01000000
'0:47.811',-0.16000000,-0.00500000
'0:47.814',-0.17000000,-0.01000000
'0:47.817',-0.18000000,-0.03500000
'0:47.819',-0.20000000,-0.00500000
'0:47.822',-0.20000000,-0.01500000
'0:47.825',-0.18000000,0.02000000
'0:47.828',-0.17000000,-0.00500000
'0:47.831',-0.17500000,0.00000000
'0:47.833',-0.18500000,-0.01000000
'0:47.836',-0.19500000,-0.00500000
'0:47.839',-0.19000000,0.00000000
'0:47.842',-0.19500000,0.02000000
'0:47.844',-0.17000000,0.00000000
'0:47.847',-0.18000000,-0.00500000
'0:47.850',-0.19500000,-0.01000000
'0:47.853',-0.21500000,-0.01000000
'0:47.856',-0.21500000,-0.01000000
'0:47.858',-0.21500000,0.01500000
'0:47.861',-0.20000000,0.00000000
'0:47.864',-0.19500000,-0.00500000
'0:47.867',-0.22500000,-0.01000000
'0:47.869',-0.22500000,-0.00500000
'0:47.872',-0.21500000,0.01000000
'0:47.875',-0.21000000,0.02000000
'0:47.878',-0.20000000,0.00500000
'0:47.881',-0.20000000,-0.01000000
'0:47.883',-0.23500000,-0.02500000
'0:47.886',-0.25000000,-0.02500000
'0:47.889',-0.24000000,-0.01000000
'0:47.892',-0.22000000,0.01000000
'0:47.894',-0.21000000,0.00500000
'0:47.897',-0.22000000,0.00500000
'0:47.900',-0.23000000,-0.02500000
'0:47.903',-0.23500000,-0.01000000
'0:47.906',-0.23000000,-0.00500000
'0:47.908',-0.22000000,0.02000000
'0:47.911',-0.21000000,0.01000000
'0:47.914',-0.22000000,-0.00500000
'0:47.917',-0.24000000,-0.01500000
'0:47.919',-0.23500000,0.00000000
'0:47.922',-0.24000000,0.00000000
'0:47.925',-0.23000000,0.00500000
'0:47.928',-0.22000000,-0.00500000
'0:47.931',-0.22000000,-0.00500000
'0:47.933',-0.23500000,-0.01500000
'0:47.936',-0.24500000,-0.01000000
'0:47.939',-0.23500000,0.01000000
'0:47.942',-0.22000000,0.01500000
'0:47.944',-0.22000000,0.01000000
'0:47.947',-0.22500000,-0.00500000
'0:47.950',-0.24500000,-0.02000000
'0:47.953',-0.25000000,-0.01500000
'0:47.956',-0.23500000,-0.01000000
'0:47.958',-0.22500000,0.00500000
'0:47.961',-0.22500000,0.00000000
'0:47.964',-0.23500000,-0.00500000
'0:47.967',-0.24500000,-0.01500000
'0:47.969',-0.25000000,0.00500000
'0:47.972',-0.24500000,0.01500000
'0:47.975',-0.22500000,0.02000000
'0:47.978',-0.21500000,0.00500000
'0:47.981',-0.22500000,0.01000000
'0:47.983',-0.23500000,0.00500000
'0:47.986',-0.24500000,0.02500000
'0:47.989',-0.24500000,0.04000000
'0:47.992',-0.22000000,0.04500000
'0:47.994',-0.21500000,0.03000000
'0:47.997',-0.23000000,0.00500000
'0:48.000',-0.24000000,-0.02000000
'0:48.003',-0.25000000,-0.04000000
'0:48.006',-0.23500000,-0.04000000
'0:48.008',-0.23000000,-0.02500000
'0:48.011',-0.21000000,-0.02000000
'0:48.014',-0.22000000,-0.02000000
'0:48.017',-0.23500000,-0.02000000
'0:48.019',-0.23500000,-0.00500000
'0:48.022',-0.23000000,0.00000000
'0:48.025',-0.21500000,0.01500000
'0:48.028',-0.20500000,0.01000000
'0:48.031',-0.20000000,-0.00500000
'0:48.033',-0.21000000,-0.00500000
'0:48.036',-0.22500000,-0.00500000
'0:48.039',-0.22500000,0.00500000
'0:48.042',-0.21500000,0.01500000
'0:48.044',-0.20500000,0.02500000
'0:48.047',-0.21000000,0.01500000
'0:48.050',-0.21500000,0.00500000
'0:48.053',-0.19500000,0.01000000
'0:48.056',-0.18500000,0.03500000
'0:48.058',-0.16500000,0.05000000
'0:48.061',-0.15000000,0.03000000
'0:48.064',-0.15500000,0.04000000
'0:48.067',-0.15000000,0.04500000
'0:48.069',-0.15500000,0.05500000
'0:48.072',-0.13500000,0.10000000
'0:48.075',-0.11000000,0.11500000
'0:48.078',-0.09000000,0.09500000
'0:48.081',-0.09000000,0.09000000
'0:48.083',-0.10000000,0.06500000
'0:48.086',-0.09500000,0.04500000
'0:48.089',-0.07500000,0.03000000
'0:48.092',-0.05500000,0.03000000
'0:48.094',-0.05000000,0.02000000
'0:48.097',-0.05500000,0.01000000
'0:48.100',-0.08000000,0.00500000
'0:48.103',-0.09000000,0.02500000
'0:48.106',-0.10000000,0.03500000
'0:48.108',-0.09500000,0.05000000
'0:48.111',-0.09500000,0.03500000
'0:48.114',-0.10500000,-0.00500000
'0:48.117',-0.13000000,-0.02500000
'0:48.119',-0.15500000,0.00000000
'0:48.122',-0.15500000,0.01500000
'0:48.125',-0.15000000,0.02500000
'0:48.128',-0.14500000,0.02500000
'0:48.131',-0.17000000,0.01000000
'0:48.133',-0.19000000,0.01000000
'0:48.136',-0.19000000,0.01500000
'0:48.139',-0.18500000,0.02000000
'0:48.142',-0.18000000,0.03500000
'0:48.144',-0.16500000,0.02000000
'0:48.147',-0.17000000,0.00000000
'0:48.150',-0.19000000,-0.01000000
'0:48.153',-0.21000000,-0.01000000
'0:48.156',-0.19500000,0.01500000
'0:48.158',-0.18500000,0.03000000
'0:48.161',-0.18000000,0.02500000
'0:48.164',-0.18000000,0.02000000
'0:48.167',-0.17000000,0.00000000
'0:48.169',-0.17000000,0.00000000
'0:48.172',-0.15000000,0.03000000
'0:48.175',-0.14500000,0.03500000
'0:48.178',-0.13500000,0.01500000
'0:48.181',-0.11500000,-0.01500000
'0:48.183',-0.07500000,-0.02500000
'0:48.186',-0.00500000,-0.02500000
'0:48.189',0.12000000,-0.01000000
'0:48.192',0.29500000,0.00000000
'0:48.194',0.49500000,-0.00500000
'0:48.197',0.67000000,0.02500000
'0:48.200',0.78000000,0.08000000
'0:48.203',0.84000000,0.17000000
'0:48.206',0.86500000,0.24500000
'0:48.208',0.87000000,0.30000000
'0:48.211',0.83500000,0.32500000
'0:48.214',0.75500000,0.31500000
'0:48.217',0.60000000,0.23500000
'0:48.219',0.38500000,0.15500000
'0:48.222',0.15500000,0.05000000
'0:48.225',-0.04500000,-0.04500000
'0:48.228',-0.11500000,-0.12500000
'0:48.231',-0.12500000,-0.18500000
'0:48.233',-0.13000000,-0.22000000
'0:48.236',-0.15000000,-0.20000000
'0:48.239',-0.17000000,-0.15000000
'0:48.242',-0.18500000,-0.07500000
'0:48.244',-0.19500000,-0.05000000
'0:48.247',-0.21000000,-0.02500000
'0:48.250',-0.23000000,-0.00500000
'0:48.253',-0.26500000,0.00000000
'0:48.256',-0.27000000,0.03000000
'0:48.258',-0.27500000,0.02500000
'0:48.261',-0.27500000,0.02500000
'0:48.264',-0.28500000,0.02000000
'0:48.267',-0.31000000,0.01500000
'0:48.269',-0.31000000,0.01500000
'0:48.272',-0.33000000,0.03500000
'0:48.275',-0.31500000,0.04000000
'0:48.278',-0.31500000,0.03000000
'0:48.281',-0.32500000,0.01000000
'0:48.283',-0.35000000,0.00500000
'0:48.286',-0.35500000,0.00000000
'0:48.289',-0.33000000,0.01500000
'0:48.292',-0.32500000,0.03000000
'0:48.294',-0.32000000,0.03000000
'0:48.297',-0.34000000,0.02000000
'0:48.300',-0.36000000,0.00500000
'0:48.303',-0.36000000,0.02000000
'0:48.306',-0.35500000,0.03500000
'0:48.308',-0.34000000,0.03500000
'0:48.311',-0.34000000,0.04000000
'0:48.314',-0.35000000,0.02500000
'0:48.317',-0.34500000,0.01500000
'0:48.319',-0.35000000,0.03500000
'0:48.322',-0.35500000,0.04500000
'0:48.325',-0.35000000,0.05500000
'0:48.328',-0.34000000,0.04000000
'0:48.331',-0.34000000,0.04000000
'0:48.333',-0.34500000,0.03500000
'0:48.336',-0.34500000,0.02500000
'0:48.339',-0.36000000,0.02500000
'0:48.342',-0.35000000,0.03500000
'0:48.344',-0.32000000,0.04000000
'0:48.347',-0.33500000,0.02000000
'0:48.350',-0.34000000,0.02500000
'0:48.353',-0.36000000,0.02000000
'0:48.356',-0.34500000,0.03500000
'0:48.358',-0.33500000,0.04500000
'0:48.361',-0.32000000,0.04500000
'0:48.364',-0.31500000,0.03500000
'0:48.367',-0.31500000,0.02500000
'0:48.369',-0.31500000,0.01500000
'0:48.372',-0.32000000,0.02500000
'0:48.375',-0.32000000,0.03500000
'0:48.378',-0.29000000,0.03000000
'0:48.381',-0.30000000,0.03500000
'0:48.383',-0.30000000,0.01500000
'0:48.386',-0.30000000,0.03500000
'0:48.389',-0.29000000,0.04500000
'0:48.392',-0.26500000,0.04000000
'0:48.394',-0.25000000,0.04000000
'0:48.397',-0.26000000,0.02000000
'0:48.400',-0.26500000,0.01500000
'0:48.403',-0.26000000,0.03000000
'0:48.406',-0.25500000,0.02500000
'0:48.408',-0.23000000,0.03500000
'0:48.411',-0.21500000,0.04000000
'0:48.414',-0.21500000,0.02000000
'0:48.417',-0.21500000,0.01000000
'0:48.419',-0.21000000,0.01000000
'0:48.422',-0.19000000,0.02000000
'0:48.425',-0.18000000,0.03000000
'0:48.428',-0.15500000,0.01500000
'0:48.431',-0.15500000,0.02000000
'0:48.433',-0.16000000,0.00500000
'0:48.436',-0.16500000,0.00500000
'0:48.439',-0.12500000,0.01000000
'0:48.442',-0.09500000,0.03000000
'0:48.444',-0.07000000,0.02500000
'0:48.447',-0.08000000,0.01000000
'0:48.450',-0.09000000,0.00000000
'0:48.453',-0.08000000,0.00000000
'0:48.456',-0.06500000,0.02000000
'0:48.458',-0.04500000,0.03500000
'0:48.461',-0.02000000,0.01000000
'0:48.464',-0.02000000,-0.00500000
'0:48.467',-0.01500000,-0.02500000
'0:48.469',-0.02500000,-0.02000000
'0:48.472',-0.01000000,-0.01500000
'0:48.475',0.00000000,0.00500000
'0:48.478',0.01500000,0.00000000
'0:48.481',0.01500000,-0.00500000
'0:48.483',0.00500000,-0.01500000
'0:48.486',-0.00500000,-0.02000000
'0:48.489',0.00000000,0.01500000
'0:48.492',-0.01000000,0.02000000
'0:48.494',0.00000000,0.02000000
'0:48.497',-0.01000000,0.01000000
'0:48.500',-0.02000000,0.01500000
'0:48.503',-0.04000000,0.01500000
'0:48.506',-0.05000000,0.03000000
'0:48.508',-0.05000000,0.03500000
'0:48.511',-0.04500000,0.05000000
'0:48.514',-0.07000000,0.04000000
'0:48.517',-0.10000000,0.02500000
'0:48.519',-0.12000000,0.02500000
'0:48.522',-0.13000000,0.03000000
'0:48.525',-0.13500000,0.07000000
'0:48.528',-0.13500000,0.08000000
'0:48.531',-0.16500000,0.09000000
'0:48.533',-0.18000000,0.09500000
'0:48.536',-0.21500000,0.11000000
'0:48.539',-0.22500000,0.11500000
'0:48.542',-0.21000000,0.11500000
'0:48.544',-0.21500000,0.09000000
'0:48.547',-0.24000000,0.04500000
'0:48.550',-0.27500000,0.02500000
'0:48.553',-0.27500000,0.01000000
'0:48.556',-0.31000000,0.01500000
'0:48.558',-0.28500000,0.02000000
'0:48.561',-0.29500000,0.03000000
'0:48.564',-0.30500000,0.03500000
'0:48.567',-0.32000000,0.02000000
'0:48.569',-0.34000000,0.02000000
'0:48.572',-0.34000000,0.03000000
'0:48.575',-0.34500000,0.05000000
'0:48.578',-0.33000000,0.05000000
'0:48.581',-0.33000000,0.04500000
'0:48.583',-0.36000000,0.03000000
'0:48.586',-0.36500000,0.02500000
'0:48.589',-0.37500000,0.04000000
'0:48.592',-0.35000000,0.03500000
'0:48.594',-0.36000000,0.05000000
'0:48.597',-0.36500000,0.03000000
'0:48.600',-0.38500000,0.03000000
'0:48.603',-0.40000000,0.03000000
'0:48.606',-0.37500000,0.06000000
'0:48.608',-0.38000000,0.08500000
'0:48.611',-0.36500000,0.09500000
'0:48.614',-0.38000000,0.07500000
'0:48.617',-0.39000000,0.06000000
'0:48.619',-0.39000000,0.04000000
'0:48.622',-0.39000000,0.04000000
'0:48.625',-0.38000000,0.04500000
'0:48.628',-0.37000000,0.01500000
'0:48.631',-0.37000000,0.00500000
'0:48.633',-0.38000000,-0.02000000
'0:48.636',-0.39000000,0.01000000
'0:48.639',-0.38500000,0.05000000
'0:48.642',-0.37000000,0.07500000
'0:48.644',-0.37500000,0.06000000
'0:48.647',-0.37500000,0.03500000
'0:48.650',-0.38500000,0.01500000
'0:48.653',-0.39500000,0.03000000
'0:48.656',-0.39000000,0.06500000
'0:48.658',-0.37500000,0.10000000
'0:48.661',-0.36000000,0.17000000
'0:48.664',-0.36500000,0.23000000
'0:48.667',-0.37000000,0.21500000
'0:48.669',-0.36000000,0.12000000
'0:48.672',-0.36000000,-0.01000000
'0:48.675',-0.36000000,-0.07500000
'0:48.678',-0.34000000,-0.06500000
'0:48.681',-0.34000000,-0.05500000
'0:48.683',-0.34500000,-0.08000000
'0:48.686',-0.35000000,-0.08000000
'0:48.689',-0.33500000,-0.05000000
'0:48.692',-0.32000000,-0.02500000
'0:48.694',-0.31000000,-0.06000000
'0:48.697',-0.32000000,-0.11500000
'0:48.700',-0.32000000,-0.14500000
'0:48.703',-0.32000000,-0.13500000
'0:48.706',-0.34000000,-0.11000000
'0:48.708',-0.31000000,-0.08000000
'0:48.711',-0.30000000,-0.08000000
'0:48.714',-0.31000000,-0.07500000
'0:48.717',-0.31000000,-0.05500000
'0:48.719',-0.32000000,0.00000000
'0:48.722',-0.30000000,0.08000000
'0:48.725',-0.29500000,0.17500000
'0:48.728',-0.29000000,0.22500000
'0:48.731',-0.29500000,0.17000000
'0:48.733',-0.31000000,0.01500000
'0:48.736',-0.30500000,-0.14000000
'0:48.739',-0.30000000,-0.23000000
'0:48.742',-0.29000000,-0.20500000
'0:48.744',-0.28500000,-0.18000000
'0:48.747',-0.27500000,-0.15000000
'0:48.750',-0.28500000,-0.14500000
'0:48.753',-0.29500000,-0.12500000
'0:48.756',-0.28500000,-0.09500000
'0:48.758',-0.29000000,-0.09000000
'0:48.761',-0.27000000,-0.09000000
'0:48.764',-0.27000000,-0.09000000
'0:48.767',-0.28000000,-0.08500000
'0:48.769',-0.30000000,-0.09500000
'0:48.772',-0.29000000,-0.09500000
'0:48.775',-0.29000000,-0.07500000
'0:48.778',-0.28000000,-0.08500000
'0:48.781',-0.27500000,-0.08500000
'0:48.783',-0.28500000,-0.09500000
'0:48.786',-0.29500000,-0.09000000
'0:48.789',-0.29000000,-0.07000000
'0:48.792',-0.27500000,-0.06000000
'0:48.794',-0.27000000,-0.06500000
'0:48.797',-0.27000000,-0.07000000
'0:48.800',-0.29500000,-0.07500000
'0:48.803',-0.30000000,-0.07500000
'0:48.806',-0.28500000,-0.06500000
'0:48.808',-0.28500000,-0.04500000
'0:48.811',-0.27000000,-0.06500000
'0:48.814',-0.27500000,-0.06500000
'0:48.817',-0.29500000,-0.06500000
'0:48.819',-0.31000000,-0.07500000
'0:48.822',-0.29000000,-0.06000000
'0:48.825',-0.28500000,-0.04500000
'0:48.828',-0.27500000,-0.04500000
'0:48.831',-0.28000000,-0.06500000
'0:48.833',-0.28500000,-0.06500000
'0:48.836',-0.29000000,-0.08000000
'0:48.839',-0.30000000,-0.05500000
'0:48.842',-0.28000000,-0.03500000
'0:48.844',-0.27000000,-0.05000000
'0:48.847',-0.27000000,-0.05500000
'0:48.850',-0.28500000,-0.08000000
'0:48.853',-0.28000000,-0.08000000
'0:48.856',-0.29000000,-0.08000000
'0:48.858',-0.27500000,-0.06000000
'0:48.861',-0.27500000,-0.06000000
'0:48.864',-0.27000000,-0.06500000
'0:48.867',-0.28500000,-0.07000000
'0:48.869',-0.29500000,-0.07000000
'0:48.872',-0.30500000,-0.06000000
'0:48.875',-0.28000000,-0.04000000
'0:48.878',-0.28500000,-0.05000000
'0:48.881',-0.27500000,-0.06500000
'0:48.883',-0.28500000,-0.08500000
'0:48.886',-0.29000000,-0.08500000
'0:48.889',-0.28500000,-0.07000000
'0:48.892',-0.29000000,-0.06000000
'0:48.894',-0.27000000,-0.05500000
'0:48.897',-0.27000000,-0.06000000
'0:48.900',-0.30500000,-0.06500000
'0:48.903',-0.31500000,-0.05500000
'0:48.906',-0.30500000,-0.02000000
'0:48.908',-0.29000000,-0.01000000
'0:48.911',-0.27000000,0.01500000
'0:48.914',-0.29000000,0.00000000
'0:48.917',-0.30500000,-0.01000000
'0:48.919',-0.31500000,-0.01500000
'0:48.922',-0.30000000,-0.03000000
'0:48.925',-0.30000000,-0.05000000
'0:48.928',-0.28000000,-0.09500000
'0:48.931',-0.29500000,-0.11500000
'0:48.933',-0.29500000,-0.11000000
'0:48.936',-0.30000000,-0.10000000
'0:48.939',-0.28500000,-0.08500000
'0:48.942',-0.26500000,-0.07000000
'0:48.944',-0.28000000,-0.05500000
'0:48.947',-0.28500000,-0.07000000
'0:48.950',-0.29500000,-0.07500000
'0:48.953',-0.29500000,-0.07000000
'0:48.956',-0.29500000,-0.05500000
'0:48.958',-0.27500000,-0.04000000
'0:48.961',-0.26000000,-0.04500000
'0:48.964',-0.27000000,-0.06500000
'0:48.967',-0.28000000,-0.07500000
'0:48.969',-0.28500000,-0.06000000
'0:48.972',-0.28500000,-0.04500000
'0:48.975',-0.26500000,-0.02500000
'0:48.978',-0.25000000,-0.03000000
'0:48.981',-0.26500000,-0.02500000
'0:48.983',-0.27000000,-0.04000000
'0:48.986',-0.28500000,-0.04000000
'0:48.989',-0.28000000,-0.05000000
'0:48.992',-0.27000000,-0.05000000
'0:48.994',-0.25000000,-0.08500000
'0:48.997',-0.25000000,-0.09500000
'0:49.000',-0.26500000,-0.08500000
'0:49.003',-0.27500000,-0.08500000
'0:49.006',-0.25500000,-0.07000000
'0:49.008',-0.24500000,-0.04500000
'0:49.011',-0.23000000,-0.04500000
'0:49.014',-0.22000000,-0.04000000
'0:49.017',-0.22500000,-0.05500000
'0:49.019',-0.23000000,-0.06000000
'0:49.022',-0.23000000,-0.04000000
'0:49.025',-0.20000000,-0.03000000
'0:49.028',-0.18500000,-0.01000000
'0:49.031',-0.17000000,-0.02000000
'0:49.033',-0.17500000,-0.02000000
'0:49.036',-0.18500000,0.00500000
'0:49.039',-0.16000000,0.04000000
'0:49.042',-0.13500000,0.06000000
'0:49.044',-0.11500000,0.05500000
'0:49.047',-0.12000000,0.04000000
'0:49.050',-0.12500000,0.00000000
'0:49.053',-0.10000000,-0.01500000
'0:49.056',-0.09500000,-0.02500000
'0:49.058',-0.07500000,-0.03500000
'0:49.061',-0.06500000,-0.05000000
'0:49.064',-0.07500000,-0.04000000
'0:49.067',-0.10000000,-0.04500000
'0:49.069',-0.11500000,-0.02500000
'0:49.072',-0.11000000,-0.02500000
'0:49.075',-0.10000000,-0.03500000
'0:49.078',-0.11000000,-0.04500000
'0:49.081',-0.12000000,-0.06000000
'0:49.083',-0.15000000,-0.07000000
'0:49.086',-0.16500000,-0.05500000
'0:49.089',-0.16500000,-0.03500000
'0:49.092',-0.17000000,-0.02500000
'0:49.094',-0.16000000,-0.02500000
'0:49.097',-0.17500000,-0.04000000
'0:49.100',-0.20500000,-0.05500000
'0:49.103',-0.22500000,-0.04500000
'0:49.106',-0.20500000,-0.03500000
'0:49.108',-0.19000000,-0.03500000
'0:49.111',-0.18000000,-0.03000000
'0:49.114',-0.19000000,-0.04000000
'0:49.117',-0.20500000,-0.06000000
'0:49.119',-0.19500000,-0.05000000
'0:49.122',-0.19500000,-0.04000000
'0:49.125',-0.18500000,-0.03500000
'0:49.128',-0.15000000,-0.02500000
'0:49.131',-0.16000000,-0.05000000
'0:49.133',-0.16500000,-0.03500000
'0:49.136',-0.17500000,-0.04500000
'0:49.139',-0.17500000,-0.05000000
'0:49.142',-0.13500000,-0.05000000
'0:49.144',-0.10500000,-0.05000000
'0:49.147',-0.04500000,-0.06000000
'0:49.150',0.03000000,-0.07000000
'0:49.153',0.15500000,-0.03000000
'0:49.156',0.35000000,-0.02500000
'0:49.158',0.55000000,-0.01000000
'0:49.161',0.72500000,0.01000000
'0:49.164',0.84000000,0.03500000
'0:49.167',0.88000000,0.04500000
'0:49.169',0.89000000,0.04500000
'0:49.172',0.85500000,0.08000000
'0:49.175',0.79500000,0.10000000
'0:49.178',0.67500000,0.06500000
'0:49.181',0.46500000,0.01500000
'0:49.183',0.20500000,-0.08000000
'0:49.186',-0.04500000,-0.13000000
'0:49.189',-0.18000000,-0.16500000
'0:49.192',-0.19000000,-0.18500000
'0:49.194',-0.17000000,-0.22500000
'0:49.197',-0.16500000,-0.24000000
'0:49.200',-0.21500000,-0.22500000
'0:49.203',-0.23000000,-0.17500000
'0:49.206',-0.24000000,-0.13000000
'0:49.208',-0.23000000,-0.09000000
'0:49.211',-0.24500000,-0.06500000
'0:49.214',-0.26500000,-0.07000000
'0:49.217',-0.27000000,-0.06500000
'0:49.219',-0.29000000,-0.04500000
'0:49.222',-0.29500000,-0.03000000
'0:49.225',-0.28500000,-0.00500000
'0:49.228',-0.28500000,-0.00500000
'0:49.231',-0.29500000,-0.00500000
'0:49.233',-0.31000000,-0.01000000
'0:49.236',-0.32000000,-0.01000000
'0:49.239',-0.32000000,-0.00500000
'0:49.242',-0.33000000,-0.01500000
'0:49.244',-0.31000000,-0.02000000
'0:49.247',-0.32000000,-0.02000000
'0:49.250',-0.34000000,-0.03500000
'0:49.253',-0.36000000,-0.03000000
'0:49.256',-0.35500000,-0.01000000
'0:49.258',-0.34000000,-0.00500000
'0:49.261',-0.32500000,-0.02000000
'0:49.264',-0.33500000,-0.02500000
'0:49.267',-0.34500000,-0.04000000
'0:49.269',-0.35000000,-0.04000000
'0:49.272',-0.35000000,-0.02500000
'0:49.275',-0.34500000,-0.00500000
'0:49.278',-0.32000000,-0.02000000
'0:49.281',-0.33000000,-0.02000000
'0:49.283',-0.34000000,-0.04000000
'0:49.286',-0.35000000,-0.03500000
'0:49.289',-0.33000000,-0.03000000
'0:49.292',-0.33000000,-0.01000000
'0:49.294',-0.33000000,-0.01000000
'0:49.297',-0.32000000,-0.02000000
'0:49.300',-0.33000000,-0.01500000
'0:49.303',-0.34500000,-0.01500000
'0:49.306',-0.34000000,-0.00500000
'0:49.308',-0.31000000,0.00000000
'0:49.311',-0.30500000,0.01000000
'0:49.314',-0.30000000,-0.01000000
'0:49.317',-0.31500000,-0.02500000
'0:49.319',-0.33000000,-0.01500000
'0:49.322',-0.32500000,0.00000000
'0:49.325',-0.29500000,0.00500000
'0:49.328',-0.28000000,0.01500000
'0:49.331',-0.28500000,0.00000000
'0:49.333',-0.29500000,-0.00500000
'0:49.336',-0.28500000,0.00000000
'0:49.339',-0.27500000,0.00500000
'0:49.342',-0.26500000,0.02500000
'0:49.344',-0.24500000,0.02500000
'0:49.347',-0.23500000,0.00500000
'0:49.350',-0.26000000,0.00000000
'0:49.353',-0.26000000,-0.01000000
'0:49.356',-0.25000000,0.01500000
'0:49.358',-0.23500000,0.03000000
'0:49.361',-0.20000000,0.01500000
'0:49.364',-0.20000000,0.01500000
'0:49.367',-0.20500000,-0.00500000
'0:49.369',-0.20500000,-0.00500000
'0:49.372',-0.19000000,0.00000000
'0:49.375',-0.17500000,-0.00500000
'0:49.378',-0.16000000,0.01000000
'0:49.381',-0.16000000,-0.01000000
'0:49.383',-0.15000000,-0.02000000
'0:49.386',-0.15500000,-0.01500000
'0:49.389',-0.13000000,-0.00500000
'0:49.392',-0.10500000,0.00000000
'0:49.394',-0.09000000,0.00500000
'0:49.397',-0.09000000,-0.01500000
'0:49.400',-0.08500000,-0.03500000
'0:49.403',-0.10500000,-0.04500000
'0:49.406',-0.07500000,-0.01500000
'0:49.408',-0.06000000,-0.00500000
'0:49.411',-0.05000000,0.00000000
'0:49.414',-0.02000000,-0.01500000
'0:49.417',-0.02500000,-0.02500000
'0:49.419',-0.02500000,-0.04500000
'0:49.422',-0.01500000,-0.03500000
'0:49.425',0.00000000,-0.01500000
'0:49.428',0.02500000,-0.01000000
'0:49.431',0.02000000,-0.01500000
'0:49.433',0.01000000,-0.02500000
'0:49.436',0.01500000,0.00000000
'0:49.439',0.02000000,0.01500000
