'Elapsed time','I','II','III','AVR','AVL','AVF','V1','V2','V3','V4','V5','V6'
'hh:mm:ss.mmm','mV','mV','mV','mV','mV','mV','mV','mV','mV','mV','mV','mV'
'0:00.000',0.150,0.226,0.076,-0.188,0.037,0.151,-0.016,0.706,0.588,0.428,0.369,0.241
'0:00.001',0.150,0.225,0.075,-0.187,0.038,0.150,-0.019,0.712,0.594,0.431,0.375,0.244
'0:00.002',0.150,0.224,0.074,-0.187,0.038,0.149,-0.022,0.719,0.600,0.434,0.381,0.247
'0:00.003',0.150,0.222,0.072,-0.186,0.039,0.147,-0.025,0.725,0.606,0.438,0.387,0.250
'0:00.004',0.153,0.226,0.073,-0.189,0.040,0.149,-0.025,0.731,0.612,0.444,0.387,0.250
'0:00.005',0.156,0.231,0.075,-0.194,0.041,0.153,-0.025,0.737,0.619,0.450,0.387,0.250
'0:00.006',0.156,0.233,0.076,-0.194,0.040,0.154,-0.025,0.737,0.622,0.453,0.391,0.256
'0:00.007',0.156,0.234,0.078,-0.195,0.039,0.156,-0.025,0.737,0.625,0.456,0.394,0.262
'0:00.008',0.155,0.236,0.081,-0.195,0.037,0.158,-0.028,0.744,0.628,0.463,0.400,0.266
'0:00.009',0.153,0.238,0.084,-0.195,0.034,0.161,-0.031,0.750,0.631,0.469,0.406,0.269
'0:00.010',0.153,0.242,0.089,-0.197,0.032,0.165,-0.031,0.753,0.634,0.469,0.412,0.272
'0:00.011',0.153,0.247,0.094,-0.200,0.029,0.170,-0.031,0.756,0.638,0.469,0.419,0.275
'0:00.012',0.154,0.250,0.096,-0.202,0.029,0.173,-0.031,0.753,0.641,0.469,0.419,0.278
'0:00.013',0.156,0.253,0.097,-0.204,0.029,0.175,-0.031,0.750,0.644,0.469,0.419,0.281
'0:00.014',0.156,0.254,0.098,-0.205,0.029,0.176,-0.031,0.750,0.644,0.472,0.419,0.278
'0:00.015',0.156,0.256,0.100,-0.206,0.028,0.178,-0.031,0.750,0.644,0.475,0.419,0.275
'0:00.016',0.158,0.256,0.099,-0.207,0.029,0.178,-0.031,0.753,0.644,0.475,0.419,0.275
'0:00.017',0.159,0.256,0.097,-0.208,0.031,0.176,-0.031,0.756,0.644,0.475,0.419,0.275
'0:00.018',0.159,0.256,0.097,-0.208,0.031,0.176,-0.034,0.756,0.644,0.472,0.419,0.278
'0:00.019',0.159,0.256,0.097,-0.208,0.031,0.176,-0.038,0.756,0.644,0.469,0.419,0.281
'0:00.020',0.159,0.263,0.103,-0.211,0.028,0.183,-0.038,0.750,0.644,0.469,0.419,0.281
'0:00.021',0.159,0.269,0.109,-0.214,0.025,0.189,-0.038,0.744,0.644,0.469,0.419,0.281
'0:00.022',0.159,0.268,0.108,-0.213,0.026,0.187,-0.038,0.741,0.641,0.469,0.416,0.281
'0:00.023',0.159,0.266,0.106,-0.212,0.026,0.186,-0.038,0.737,0.638,0.469,0.412,0.281
'0:00.024',0.155,0.263,0.107,-0.209,0.024,0.185,-0.034,0.728,0.631,0.469,0.412,0.281
'0:00.025',0.150,0.259,0.109,-0.204,0.020,0.184,-0.031,0.719,0.625,0.469,0.412,0.281
'0:00.026',0.147,0.258,0.111,-0.203,0.017,0.184,-0.031,0.712,0.616,0.466,0.412,0.281
'0:00.027',0.144,0.256,0.112,-0.200,0.016,0.184,-0.031,0.706,0.606,0.463,0.412,0.281
'0:00.028',0.142,0.255,0.112,-0.199,0.015,0.184,-0.028,0.694,0.597,0.453,0.406,0.278
'0:00.029',0.141,0.253,0.112,-0.197,0.014,0.183,-0.025,0.681,0.588,0.444,0.400,0.275
'0:00.030',0.139,0.253,0.114,-0.196,0.012,0.183,-0.025,0.669,0.575,0.434,0.391,0.272
'0:00.031',0.138,0.253,0.116,-0.195,0.011,0.184,-0.025,0.656,0.563,0.425,0.381,0.269
'0:00.032',0.133,0.253,0.120,-0.193,0.006,0.186,-0.025,0.637,0.547,0.416,0.372,0.262
'0:00.033',0.128,0.253,0.125,-0.191,0.001,0.189,-0.025,0.619,0.531,0.406,0.363,0.256
'0:00.034',0.127,0.249,0.122,-0.187,0.002,0.185,-0.025,0.606,0.519,0.391,0.350,0.247
'0:00.035',0.125,0.244,0.119,-0.184,0.003,0.181,-0.025,0.594,0.506,0.375,0.337,0.238
'0:00.036',0.124,0.239,0.116,-0.181,0.004,0.178,-0.022,0.578,0.491,0.362,0.328,0.231
'0:00.037',0.122,0.234,0.112,-0.178,0.004,0.173,-0.019,0.562,0.475,0.350,0.319,0.225
'0:00.038',0.114,0.227,0.112,-0.171,0.001,0.169,-0.012,0.541,0.456,0.338,0.309,0.219
'0:00.039',0.106,0.219,0.112,-0.162,-0.003,0.166,-0.006,0.519,0.438,0.325,0.300,0.212
'0:00.040',0.103,0.209,0.106,-0.156,-0.002,0.158,-0.003,0.503,0.419,0.313,0.287,0.206
'0:00.041',0.100,0.200,0.100,-0.150,0.000,0.150,0.000,0.487,0.400,0.300,0.275,0.200
'0:00.042',0.096,0.194,0.098,-0.144,-0.001,0.146,0.000,0.466,0.381,0.281,0.263,0.187
'0:00.043',0.091,0.188,0.097,-0.139,-0.003,0.142,0.000,0.444,0.363,0.263,0.250,0.175
'0:00.044',0.087,0.183,0.096,-0.135,-0.004,0.139,0.000,0.425,0.344,0.253,0.237,0.169
'0:00.045',0.084,0.178,0.094,-0.131,-0.005,0.136,0.000,0.406,0.325,0.244,0.225,0.162
'0:00.046',0.080,0.171,0.091,-0.125,-0.006,0.131,0.003,0.391,0.306,0.228,0.209,0.153
'0:00.047',0.075,0.163,0.087,-0.119,-0.006,0.125,0.006,0.375,0.288,0.212,0.194,0.144
'0:00.048',0.071,0.153,0.082,-0.112,-0.006,0.118,0.006,0.356,0.269,0.197,0.181,0.134
'0:00.049',0.066,0.144,0.078,-0.104,-0.006,0.111,0.006,0.337,0.250,0.181,0.169,0.125
'0:00.050',0.059,0.134,0.075,-0.097,-0.008,0.104,0.012,0.319,0.238,0.172,0.159,0.122
'0:00.051',0.053,0.125,0.072,-0.089,-0.009,0.098,0.019,0.300,0.225,0.163,0.150,0.119
'0:00.052',0.050,0.119,0.069,-0.084,-0.009,0.094,0.022,0.284,0.206,0.147,0.137,0.109
'0:00.053',0.047,0.112,0.066,-0.079,-0.009,0.089,0.025,0.269,0.187,0.131,0.125,0.100
'0:00.054',0.046,0.106,0.061,-0.076,-0.008,0.083,0.022,0.247,0.169,0.119,0.116,0.091
'0:00.055',0.044,0.100,0.056,-0.072,-0.006,0.078,0.019,0.225,0.150,0.106,0.106,0.081
'0:00.056',0.041,0.091,0.050,-0.066,-0.005,0.070,0.022,0.209,0.134,0.091,0.091,0.072
'0:00.057',0.038,0.081,0.044,-0.059,-0.003,0.063,0.025,0.194,0.119,0.075,0.075,0.062
'0:00.058',0.034,0.074,0.039,-0.054,-0.003,0.056,0.025,0.175,0.106,0.063,0.066,0.056
'0:00.059',0.031,0.066,0.034,-0.048,-0.002,0.050,0.025,0.156,0.094,0.050,0.056,0.050
'0:00.060',0.028,0.058,0.030,-0.043,-0.001,0.044,0.025,0.144,0.075,0.041,0.047,0.044
'0:00.061',0.025,0.050,0.025,-0.037,0.000,0.038,0.025,0.131,0.056,0.031,0.037,0.037
'0:00.062',0.021,0.041,0.020,-0.031,0.000,0.030,0.025,0.116,0.044,0.019,0.028,0.028
'0:00.063',0.016,0.031,0.016,-0.023,0.000,0.023,0.025,0.100,0.031,0.006,0.019,0.019
'0:00.064',0.014,0.030,0.016,-0.022,-0.001,0.023,0.028,0.084,0.016,-0.009,0.009,0.013
'0:00.065',0.012,0.028,0.016,-0.020,-0.002,0.022,0.031,0.069,0.000,-0.025,0.000,0.006
'0:00.066',0.009,0.021,0.011,-0.015,-0.001,0.016,0.028,0.056,-0.009,-0.031,-0.012,0.000
'0:00.067',0.006,0.012,0.006,-0.009,0.000,0.009,0.025,0.044,-0.019,-0.038,-0.025,-0.006
'0:00.068',0.003,0.005,0.002,-0.004,0.001,0.003,0.025,0.031,-0.031,-0.047,-0.031,-0.009
'0:00.069',0.000,-0.003,-0.003,0.002,0.001,-0.003,0.025,0.019,-0.044,-0.056,-0.038,-0.013
'0:00.070',-0.003,-0.011,-0.008,0.007,0.002,-0.009,0.025,0.009,-0.056,-0.066,-0.044,-0.019
'0:00.071',-0.006,-0.019,-0.013,0.013,0.003,-0.016,0.025,0.000,-0.069,-0.075,-0.050,-0.025
'0:00.072',-0.008,-0.023,-0.016,0.016,0.004,-0.019,0.025,-0.009,-0.078,-0.078,-0.053,-0.031
'0:00.073',-0.009,-0.028,-0.019,0.019,0.004,-0.024,0.025,-0.019,-0.088,-0.081,-0.056,-0.038
'0:00.074',-0.009,-0.029,-0.020,0.019,0.005,-0.025,0.028,-0.031,-0.100,-0.091,-0.066,-0.041
'0:00.075',-0.009,-0.031,-0.022,0.021,0.006,-0.027,0.031,-0.044,-0.112,-0.100,-0.075,-0.044
'0:00.076',-0.009,-0.036,-0.026,0.022,0.008,-0.031,0.028,-0.050,-0.119,-0.109,-0.078,-0.047
'0:00.077',-0.009,-0.041,-0.031,0.025,0.011,-0.036,0.025,-0.056,-0.125,-0.119,-0.081,-0.050
'0:00.078',-0.012,-0.045,-0.033,0.029,0.010,-0.039,0.028,-0.062,-0.134,-0.125,-0.091,-0.056
'0:00.079',-0.016,-0.050,-0.034,0.033,0.009,-0.042,0.031,-0.069,-0.144,-0.131,-0.100,-0.063
'0:00.080',-0.017,-0.054,-0.038,0.036,0.010,-0.046,0.031,-0.078,-0.147,-0.137,-0.100,-0.066
'0:00.081',-0.019,-0.059,-0.041,0.039,0.011,-0.050,0.031,-0.087,-0.150,-0.144,-0.100,-0.069
'0:00.082',-0.019,-0.061,-0.042,0.040,0.011,-0.051,0.031,-0.094,-0.159,-0.147,-0.106,-0.072
'0:00.083',-0.019,-0.062,-0.044,0.041,0.012,-0.053,0.031,-0.100,-0.169,-0.150,-0.113,-0.075
'0:00.084',-0.020,-0.067,-0.047,0.044,0.013,-0.057,0.034,-0.106,-0.172,-0.156,-0.116,-0.078
'0:00.085',-0.022,-0.072,-0.050,0.047,0.014,-0.061,0.037,-0.112,-0.175,-0.163,-0.119,-0.081
'0:00.086',-0.025,-0.076,-0.051,0.051,0.013,-0.064,0.034,-0.112,-0.178,-0.163,-0.122,-0.081
'0:00.087',-0.028,-0.081,-0.053,0.055,0.012,-0.067,0.031,-0.112,-0.181,-0.163,-0.125,-0.081
'0:00.088',-0.029,-0.082,-0.053,0.056,0.012,-0.068,0.028,-0.119,-0.187,-0.166,-0.125,-0.081
'0:00.089',-0.031,-0.084,-0.053,0.058,0.011,-0.069,0.025,-0.125,-0.194,-0.169,-0.125,-0.081
'0:00.090',-0.032,-0.086,-0.053,0.059,0.010,-0.069,0.025,-0.131,-0.197,-0.175,-0.131,-0.084
'0:00.091',-0.034,-0.087,-0.053,0.061,0.009,-0.071,0.025,-0.137,-0.200,-0.181,-0.138,-0.087
'0:00.092',-0.034,-0.089,-0.054,0.062,0.010,-0.072,0.028,-0.141,-0.203,-0.181,-0.138,-0.091
'0:00.093',-0.034,-0.091,-0.056,0.062,0.011,-0.074,0.031,-0.144,-0.206,-0.181,-0.138,-0.094
'0:00.094',-0.034,-0.091,-0.056,0.062,0.011,-0.074,0.031,-0.150,-0.209,-0.188,-0.141,-0.097
'0:00.095',-0.034,-0.091,-0.056,0.062,0.011,-0.074,0.031,-0.156,-0.213,-0.194,-0.144,-0.100
'0:00.096',-0.034,-0.092,-0.058,0.063,0.011,-0.075,0.028,-0.156,-0.216,-0.194,-0.144,-0.097
'0:00.097',-0.034,-0.094,-0.059,0.064,0.012,-0.077,0.025,-0.156,-0.219,-0.194,-0.144,-0.094
'0:00.098',-0.034,-0.094,-0.059,0.064,0.012,-0.077,0.025,-0.159,-0.222,-0.197,-0.147,-0.097
'0:00.099',-0.034,-0.094,-0.059,0.064,0.012,-0.077,0.025,-0.162,-0.225,-0.200,-0.150,-0.100
'0:00.100',-0.034,-0.094,-0.059,0.064,0.012,-0.077,0.025,-0.162,-0.228,-0.200,-0.153,-0.100
'0:00.101',-0.034,-0.094,-0.059,0.064,0.012,-0.077,0.025,-0.162,-0.231,-0.200,-0.156,-0.100
'0:00.102',-0.036,-0.097,-0.061,0.066,0.012,-0.079,0.025,-0.166,-0.231,-0.203,-0.156,-0.103
'0:00.103',-0.037,-0.100,-0.063,0.069,0.012,-0.081,0.025,-0.169,-0.231,-0.206,-0.156,-0.106
'0:00.104',-0.037,-0.100,-0.063,0.069,0.012,-0.081,0.022,-0.172,-0.234,-0.206,-0.156,-0.106
'0:00.105',-0.037,-0.100,-0.063,0.069,0.012,-0.081,0.019,-0.175,-0.237,-0.206,-0.156,-0.106
'0:00.106',-0.036,-0.099,-0.063,0.068,0.013,-0.081,0.019,-0.175,-0.241,-0.209,-0.156,-0.106
'0:00.107',-0.034,-0.097,-0.063,0.066,0.014,-0.080,0.019,-0.175,-0.244,-0.212,-0.156,-0.106
'0:00.108',-0.033,-0.097,-0.064,0.065,0.015,-0.081,0.019,-0.178,-0.241,-0.212,-0.159,-0.106
'0:00.109',-0.031,-0.097,-0.066,0.064,0.017,-0.081,0.019,-0.181,-0.237,-0.212,-0.163,-0.106
'0:00.110',-0.031,-0.096,-0.064,0.064,0.016,-0.080,0.019,-0.181,-0.237,-0.212,-0.163,-0.106
'0:00.111',-0.031,-0.094,-0.063,0.062,0.016,-0.078,0.019,-0.181,-0.237,-0.212,-0.163,-0.106
'0:00.112',-0.032,-0.095,-0.063,0.064,0.015,-0.079,0.019,-0.181,-0.237,-0.212,-0.163,-0.106
'0:00.113',-0.034,-0.097,-0.063,0.066,0.014,-0.080,0.019,-0.181,-0.237,-0.212,-0.163,-0.106
'0:00.114',-0.039,-0.096,-0.058,0.068,0.009,-0.077,0.019,-0.178,-0.234,-0.206,-0.159,-0.103
'0:00.115',-0.044,-0.097,-0.053,0.071,0.004,-0.075,0.019,-0.181,-0.237,-0.206,-0.163,-0.100
'0:00.116',-0.041,-0.102,-0.061,0.071,0.010,-0.082,0.016,-0.181,-0.231,-0.209,-0.156,-0.097
'0:00.117',-0.044,-0.103,-0.059,0.074,0.007,-0.081,0.019,-0.181,-0.231,-0.212,-0.150,-0.100
'0:00.118',-0.043,-0.104,-0.062,0.074,0.009,-0.083,0.019,-0.184,-0.231,-0.206,-0.153,-0.097
'0:00.119',-0.037,-0.106,-0.069,0.072,0.016,-0.087,0.019,-0.181,-0.231,-0.206,-0.156,-0.100
'0:00.120',-0.036,-0.102,-0.066,0.069,0.014,-0.084,0.016,-0.178,-0.231,-0.212,-0.163,-0.100
'0:00.121',-0.034,-0.100,-0.066,0.068,0.016,-0.083,0.012,-0.181,-0.237,-0.212,-0.163,-0.106
'0:00.122',-0.033,-0.097,-0.064,0.065,0.015,-0.081,0.012,-0.178,-0.237,-0.216,-0.159,-0.106
'0:00.123',-0.031,-0.094,-0.063,0.062,0.016,-0.078,0.012,-0.181,-0.237,-0.212,-0.163,-0.106
'0:00.124',-0.030,-0.097,-0.067,0.064,0.018,-0.082,0.016,-0.178,-0.237,-0.209,-0.159,-0.113
'0:00.125',-0.031,-0.103,-0.072,0.068,0.020,-0.087,0.019,-0.175,-0.237,-0.206,-0.163,-0.113
'0:00.126',-0.034,-0.103,-0.069,0.069,0.017,-0.086,0.016,-0.175,-0.237,-0.206,-0.159,-0.106
'0:00.127',-0.034,-0.103,-0.069,0.069,0.017,-0.086,0.019,-0.175,-0.237,-0.212,-0.163,-0.106
'0:00.128',-0.033,-0.105,-0.072,0.069,0.019,-0.089,0.019,-0.172,-0.237,-0.203,-0.159,-0.103
'0:00.129',-0.034,-0.103,-0.069,0.069,0.017,-0.086,0.019,-0.169,-0.237,-0.200,-0.156,-0.100
'0:00.130',-0.031,-0.103,-0.072,0.068,0.020,-0.087,0.019,-0.166,-0.237,-0.203,-0.153,-0.100
'0:00.131',-0.034,-0.103,-0.069,0.069,0.017,-0.086,0.019,-0.169,-0.231,-0.206,-0.150,-0.094
'0:00.132',-0.033,-0.105,-0.072,0.069,0.019,-0.089,0.016,-0.166,-0.231,-0.200,-0.150,-0.097
'0:00.133',-0.034,-0.103,-0.069,0.069,0.017,-0.086,0.019,-0.169,-0.231,-0.200,-0.150,-0.094
'0:00.134',-0.036,-0.100,-0.064,0.068,0.014,-0.082,0.019,-0.166,-0.231,-0.194,-0.150,-0.094
'0:00.135',-0.034,-0.103,-0.069,0.069,0.017,-0.086,0.019,-0.162,-0.231,-0.194,-0.150,-0.094
'0:00.136',-0.036,-0.102,-0.066,0.069,0.014,-0.084,0.019,-0.162,-0.237,-0.197,-0.150,-0.094
'0:00.137',-0.034,-0.103,-0.069,0.069,0.017,-0.086,0.025,-0.162,-0.231,-0.194,-0.144,-0.094
'0:00.138',-0.034,-0.103,-0.069,0.069,0.017,-0.086,0.019,-0.166,-0.231,-0.197,-0.147,-0.094
'0:00.139',-0.034,-0.100,-0.066,0.068,0.016,-0.083,0.019,-0.162,-0.225,-0.194,-0.144,-0.094
'0:00.140',-0.033,-0.100,-0.067,0.067,0.017,-0.084,0.016,-0.162,-0.225,-0.194,-0.144,-0.094
'0:00.141',-0.034,-0.100,-0.066,0.068,0.016,-0.083,0.012,-0.162,-0.225,-0.194,-0.144,-0.094
'0:00.142',-0.034,-0.100,-0.066,0.068,0.016,-0.083,0.016,-0.159,-0.222,-0.197,-0.144,-0.094
'0:00.143',-0.034,-0.097,-0.063,0.066,0.014,-0.080,0.019,-0.162,-0.219,-0.194,-0.144,-0.094
'0:00.144',-0.033,-0.096,-0.063,0.064,0.014,-0.079,0.016,-0.169,-0.222,-0.197,-0.147,-0.103
'0:00.145',-0.034,-0.094,-0.059,0.064,0.012,-0.077,0.019,-0.175,-0.231,-0.200,-0.144,-0.100
'0:00.146',-0.034,-0.091,-0.056,0.062,0.011,-0.074,0.012,-0.150,-0.209,-0.188,-0.134,-0.097
'0:00.147',-0.034,-0.094,-0.059,0.064,0.012,-0.077,0.012,-0.156,-0.213,-0.188,-0.138,-0.100
'0:00.148',-0.037,-0.097,-0.059,0.068,0.011,-0.078,0.022,-0.156,-0.209,-0.181,-0.138,-0.091
'0:00.149',-0.041,-0.100,-0.059,0.071,0.009,-0.080,0.025,-0.156,-0.213,-0.175,-0.138,-0.087
'0:00.150',-0.041,-0.097,-0.056,0.069,0.007,-0.077,0.022,-0.153,-0.209,-0.184,-0.134,-0.091
'0:00.151',-0.037,-0.091,-0.053,0.064,0.007,-0.072,0.012,-0.156,-0.213,-0.188,-0.131,-0.094
'0:00.152',-0.037,-0.091,-0.053,0.064,0.007,-0.072,0.016,-0.162,-0.213,-0.188,-0.131,-0.087
'0:00.153',-0.037,-0.087,-0.050,0.062,0.006,-0.069,0.012,-0.162,-0.213,-0.188,-0.131,-0.087
'0:00.154',-0.034,-0.089,-0.055,0.062,0.010,-0.072,0.012,-0.162,-0.209,-0.188,-0.134,-0.091
'0:00.155',-0.034,-0.087,-0.053,0.061,0.009,-0.071,0.012,-0.156,-0.206,-0.181,-0.131,-0.094
'0:00.156',-0.033,-0.086,-0.053,0.060,0.010,-0.070,0.012,-0.153,-0.203,-0.175,-0.131,-0.087
'0:00.157',-0.034,-0.087,-0.053,0.061,0.009,-0.071,0.012,-0.156,-0.200,-0.181,-0.131,-0.087
'0:00.158',-0.037,-0.087,-0.050,0.062,0.006,-0.069,0.012,-0.150,-0.203,-0.178,-0.131,-0.094
'0:00.159',-0.037,-0.087,-0.050,0.062,0.006,-0.069,0.012,-0.150,-0.200,-0.175,-0.131,-0.094
'0:00.160',-0.033,-0.087,-0.054,0.061,0.011,-0.071,0.012,-0.150,-0.200,-0.178,-0.128,-0.094
'0:00.161',-0.031,-0.081,-0.050,0.056,0.009,-0.066,0.012,-0.150,-0.200,-0.181,-0.131,-0.094
'0:00.162',-0.033,-0.081,-0.048,0.057,0.007,-0.065,0.016,-0.147,-0.203,-0.172,-0.131,-0.091
'0:00.163',-0.034,-0.084,-0.050,0.059,0.007,-0.067,0.019,-0.144,-0.200,-0.169,-0.131,-0.087
'0:00.164',-0.034,-0.084,-0.050,0.059,0.007,-0.067,0.016,-0.147,-0.203,-0.172,-0.131,-0.087
'0:00.165',-0.031,-0.087,-0.056,0.059,0.012,-0.072,0.012,-0.150,-0.200,-0.175,-0.131,-0.087
'0:00.166',-0.033,-0.083,-0.050,0.058,0.008,-0.067,0.009,-0.147,-0.200,-0.169,-0.128,-0.087
'0:00.167',-0.034,-0.081,-0.047,0.058,0.006,-0.064,0.006,-0.144,-0.200,-0.169,-0.131,-0.094
'0:00.168',-0.034,-0.081,-0.047,0.058,0.006,-0.064,0.009,-0.144,-0.200,-0.172,-0.125,-0.087
'0:00.169',-0.031,-0.081,-0.050,0.056,0.009,-0.066,0.012,-0.144,-0.194,-0.169,-0.125,-0.087
'0:00.170',-0.033,-0.084,-0.051,0.059,0.009,-0.068,0.016,-0.141,-0.194,-0.169,-0.128,-0.091
'0:00.171',-0.031,-0.084,-0.053,0.058,0.011,-0.069,0.012,-0.144,-0.187,-0.169,-0.131,-0.094
'0:00.172',-0.031,-0.077,-0.046,0.054,0.007,-0.061,0.022,-0.147,-0.191,-0.172,-0.128,-0.091
'0:00.173',-0.028,-0.075,-0.047,0.052,0.009,-0.061,0.019,-0.144,-0.187,-0.169,-0.131,-0.087
'0:00.174',-0.030,-0.074,-0.044,0.052,0.007,-0.059,0.016,-0.147,-0.181,-0.172,-0.128,-0.087
'0:00.175',-0.031,-0.075,-0.044,0.053,0.006,-0.059,0.019,-0.144,-0.181,-0.169,-0.125,-0.081
'0:00.176',-0.032,-0.077,-0.044,0.055,0.006,-0.061,0.019,-0.147,-0.187,-0.169,-0.128,-0.081
'0:00.177',-0.034,-0.078,-0.044,0.056,0.004,-0.061,0.019,-0.144,-0.187,-0.169,-0.125,-0.075
'0:00.178',-0.033,-0.079,-0.046,0.056,0.006,-0.063,0.016,-0.141,-0.187,-0.172,-0.125,-0.078
'0:00.179',-0.034,-0.078,-0.044,0.056,0.004,-0.061,0.012,-0.144,-0.187,-0.175,-0.125,-0.081
'0:00.180',-0.034,-0.080,-0.046,0.057,0.006,-0.063,0.012,-0.147,-0.191,-0.172,-0.122,-0.081
'0:00.181',-0.034,-0.081,-0.047,0.058,0.006,-0.064,0.019,-0.144,-0.187,-0.169,-0.119,-0.075
'0:00.182',-0.034,-0.084,-0.050,0.059,0.007,-0.067,0.012,-0.144,-0.191,-0.169,-0.122,-0.078
'0:00.183',-0.034,-0.084,-0.050,0.059,0.007,-0.067,0.012,-0.144,-0.187,-0.169,-0.119,-0.075
'0:00.184',-0.033,-0.083,-0.050,0.058,0.008,-0.067,0.009,-0.141,-0.191,-0.169,-0.125,-0.075
'0:00.185',-0.034,-0.084,-0.050,0.059,0.007,-0.067,0.006,-0.144,-0.187,-0.169,-0.125,-0.081
'0:00.186',-0.033,-0.083,-0.050,0.058,0.008,-0.067,0.009,-0.137,-0.191,-0.169,-0.122,-0.081
'0:00.187',-0.034,-0.084,-0.050,0.059,0.007,-0.067,0.012,-0.131,-0.187,-0.163,-0.119,-0.081
'0:00.188',-0.036,-0.083,-0.048,0.059,0.006,-0.066,0.012,-0.141,-0.184,-0.163,-0.122,-0.081
'0:00.189',-0.037,-0.081,-0.044,0.059,0.003,-0.062,0.012,-0.144,-0.187,-0.163,-0.119,-0.081
'0:00.190',-0.034,-0.080,-0.046,0.057,0.006,-0.063,0.009,-0.141,-0.191,-0.163,-0.119,-0.078
'0:00.191',-0.031,-0.078,-0.047,0.055,0.007,-0.062,0.006,-0.137,-0.194,-0.163,-0.119,-0.075
'0:00.192',-0.032,-0.079,-0.047,0.056,0.007,-0.063,0.006,-0.134,-0.191,-0.169,-0.119,-0.078
'0:00.193',-0.031,-0.081,-0.050,0.056,0.009,-0.066,0.006,-0.137,-0.187,-0.169,-0.119,-0.081
'0:00.194',-0.031,-0.080,-0.049,0.056,0.009,-0.064,0.016,-0.134,-0.184,-0.166,-0.119,-0.078
'0:00.195',-0.031,-0.081,-0.050,0.056,0.009,-0.066,0.012,-0.137,-0.181,-0.163,-0.119,-0.075
'0:00.196',-0.030,-0.084,-0.054,0.057,0.012,-0.069,0.022,-0.144,-0.187,-0.163,-0.116,-0.078
'0:00.197',-0.028,-0.084,-0.056,0.056,0.014,-0.071,0.019,-0.144,-0.187,-0.163,-0.113,-0.081
'0:00.198',-0.029,-0.084,-0.055,0.057,0.012,-0.070,0.019,-0.150,-0.184,-0.163,-0.113,-0.081
'0:00.199',-0.031,-0.084,-0.053,0.058,0.011,-0.069,0.019,-0.150,-0.181,-0.163,-0.113,-0.081
'0:00.200',-0.028,-0.083,-0.055,0.056,0.013,-0.069,0.019,-0.144,-0.187,-0.159,-0.109,-0.081
'0:00.201',-0.031,-0.084,-0.053,0.058,0.011,-0.069,0.019,-0.144,-0.187,-0.156,-0.106,-0.075
'0:00.202',-0.031,-0.084,-0.053,0.058,0.011,-0.069,0.022,-0.144,-0.187,-0.159,-0.106,-0.081
'0:00.203',-0.031,-0.084,-0.053,0.058,0.011,-0.069,0.025,-0.144,-0.187,-0.156,-0.106,-0.075
'0:00.204',-0.028,-0.087,-0.059,0.058,0.016,-0.074,0.025,-0.144,-0.187,-0.156,-0.109,-0.081
'0:00.205',-0.028,-0.087,-0.059,0.058,0.016,-0.074,0.025,-0.144,-0.187,-0.156,-0.113,-0.081
'0:00.206',-0.028,-0.086,-0.058,0.057,0.014,-0.072,0.025,-0.141,-0.187,-0.159,-0.116,-0.078
'0:00.207',-0.028,-0.087,-0.059,0.058,0.016,-0.074,0.025,-0.137,-0.187,-0.163,-0.119,-0.081
'0:00.208',-0.029,-0.087,-0.058,0.059,0.014,-0.073,0.025,-0.141,-0.191,-0.163,-0.116,-0.078
'0:00.209',-0.028,-0.087,-0.059,0.058,0.016,-0.074,0.025,-0.144,-0.187,-0.163,-0.113,-0.075
'0:00.210',-0.030,-0.089,-0.059,0.059,0.014,-0.074,0.025,-0.144,-0.191,-0.163,-0.116,-0.075
'0:00.211',-0.028,-0.091,-0.063,0.059,0.017,-0.077,0.025,-0.144,-0.187,-0.163,-0.119,-0.075
'0:00.212',-0.029,-0.091,-0.061,0.060,0.016,-0.076,0.025,-0.144,-0.191,-0.169,-0.119,-0.075
'0:00.213',-0.031,-0.091,-0.059,0.061,0.014,-0.075,0.025,-0.144,-0.187,-0.169,-0.119,-0.075
'0:00.214',-0.031,-0.089,-0.058,0.060,0.013,-0.073,0.025,-0.147,-0.187,-0.166,-0.113,-0.075
'0:00.215',-0.028,-0.091,-0.063,0.059,0.017,-0.077,0.025,-0.150,-0.187,-0.169,-0.113,-0.075
'0:00.216',-0.028,-0.086,-0.058,0.057,0.015,-0.072,0.025,-0.153,-0.191,-0.172,-0.116,-0.075
'0:00.217',-0.028,-0.087,-0.059,0.058,0.016,-0.074,0.025,-0.150,-0.187,-0.169,-0.119,-0.075
'0:00.218',-0.031,-0.097,-0.066,0.064,0.017,-0.081,0.022,-0.150,-0.187,-0.172,-0.116,-0.072
'0:00.219',-0.031,-0.103,-0.072,0.068,0.020,-0.087,0.019,-0.150,-0.187,-0.169,-0.113,-0.075
'0:00.220',-0.032,-0.104,-0.072,0.069,0.019,-0.088,0.022,-0.150,-0.184,-0.169,-0.119,-0.075
'0:00.221',-0.034,-0.103,-0.069,0.069,0.017,-0.086,0.025,-0.150,-0.181,-0.163,-0.119,-0.075
'0:00.222',-0.033,-0.099,-0.066,0.066,0.016,-0.082,0.019,-0.150,-0.184,-0.166,-0.122,-0.081
'0:00.223',-0.034,-0.097,-0.063,0.066,0.014,-0.080,0.012,-0.144,-0.187,-0.169,-0.125,-0.081
'0:00.224',-0.033,-0.097,-0.064,0.065,0.015,-0.081,0.022,-0.153,-0.191,-0.169,-0.125,-0.081
'0:00.225',-0.031,-0.097,-0.066,0.064,0.017,-0.081,0.019,-0.162,-0.194,-0.169,-0.125,-0.081
'0:00.226',-0.028,-0.098,-0.070,0.063,0.021,-0.084,0.016,-0.159,-0.191,-0.169,-0.125,-0.081
'0:00.227',-0.031,-0.100,-0.069,0.066,0.019,-0.084,0.012,-0.162,-0.194,-0.175,-0.125,-0.081
'0:00.228',-0.032,-0.100,-0.068,0.066,0.017,-0.084,0.012,-0.162,-0.197,-0.172,-0.125,-0.081
'0:00.229',-0.034,-0.100,-0.066,0.068,0.016,-0.083,0.012,-0.162,-0.194,-0.169,-0.125,-0.081
'0:00.230',-0.036,-0.100,-0.064,0.068,0.014,-0.082,0.012,-0.156,-0.194,-0.169,-0.122,-0.081
'0:00.231',-0.037,-0.100,-0.063,0.069,0.012,-0.081,0.012,-0.162,-0.194,-0.169,-0.119,-0.081
'0:00.232',-0.037,-0.101,-0.064,0.069,0.013,-0.082,0.012,-0.156,-0.194,-0.172,-0.122,-0.081
'0:00.233',-0.037,-0.100,-0.063,0.069,0.012,-0.081,0.012,-0.156,-0.194,-0.175,-0.125,-0.081
'0:00.234',-0.034,-0.103,-0.069,0.069,0.017,-0.086,0.012,-0.156,-0.200,-0.169,-0.125,-0.078
'0:00.235',-0.034,-0.103,-0.069,0.069,0.017,-0.086,0.012,-0.162,-0.194,-0.175,-0.125,-0.075
'0:00.236',-0.034,-0.106,-0.072,0.071,0.019,-0.089,0.009,-0.159,-0.194,-0.172,-0.125,-0.078
'0:00.237',-0.034,-0.106,-0.072,0.071,0.019,-0.089,0.006,-0.162,-0.194,-0.175,-0.125,-0.081
'0:00.238',-0.034,-0.109,-0.075,0.072,0.020,-0.092,0.006,-0.159,-0.194,-0.178,-0.128,-0.078
'0:00.239',-0.034,-0.112,-0.078,0.074,0.022,-0.096,0.006,-0.156,-0.194,-0.175,-0.125,-0.075
'0:00.240',-0.037,-0.109,-0.072,0.074,0.017,-0.091,0.006,-0.156,-0.197,-0.175,-0.125,-0.078
'0:00.241',-0.037,-0.109,-0.072,0.074,0.017,-0.091,0.006,-0.156,-0.200,-0.175,-0.125,-0.081
'0:00.242',-0.033,-0.109,-0.076,0.071,0.021,-0.093,0.006,-0.162,-0.203,-0.169,-0.122,-0.084
'0:00.243',-0.031,-0.109,-0.078,0.071,0.023,-0.094,0.006,-0.169,-0.206,-0.169,-0.125,-0.087
'0:00.244',-0.031,-0.109,-0.078,0.071,0.023,-0.094,0.006,-0.169,-0.209,-0.175,-0.128,-0.087
'0:00.245',-0.031,-0.109,-0.078,0.071,0.023,-0.094,0.006,-0.169,-0.206,-0.169,-0.131,-0.087
'0:00.246',-0.032,-0.109,-0.077,0.071,0.022,-0.093,0.006,-0.169,-0.203,-0.169,-0.131,-0.087
'0:00.247',-0.031,-0.106,-0.075,0.069,0.022,-0.091,0.006,-0.175,-0.206,-0.169,-0.131,-0.087
'0:00.248',-0.032,-0.106,-0.074,0.069,0.021,-0.090,0.006,-0.175,-0.209,-0.169,-0.134,-0.087
'0:00.249',-0.034,-0.106,-0.072,0.071,0.019,-0.089,0.006,-0.175,-0.206,-0.175,-0.138,-0.087
'0:00.250',-0.036,-0.109,-0.073,0.073,0.018,-0.091,0.006,-0.175,-0.209,-0.172,-0.131,-0.087
'0:00.251',-0.037,-0.109,-0.072,0.074,0.017,-0.091,0.006,-0.175,-0.213,-0.175,-0.131,-0.087
'0:00.252',-0.039,-0.109,-0.071,0.074,0.016,-0.090,0.006,-0.175,-0.216,-0.175,-0.131,-0.087
'0:00.253',-0.037,-0.109,-0.072,0.074,0.017,-0.091,0.006,-0.181,-0.219,-0.181,-0.138,-0.087
'0:00.254',-0.037,-0.111,-0.073,0.074,0.017,-0.092,0.003,-0.178,-0.213,-0.178,-0.134,-0.091
'0:00.255',-0.037,-0.109,-0.072,0.074,0.017,-0.091,0.000,-0.181,-0.206,-0.181,-0.138,-0.094
'0:00.256',-0.037,-0.108,-0.071,0.073,0.016,-0.089,0.003,-0.178,-0.209,-0.181,-0.138,-0.091
'0:00.257',-0.037,-0.109,-0.072,0.074,0.017,-0.091,0.006,-0.175,-0.213,-0.181,-0.138,-0.087
'0:00.258',-0.034,-0.106,-0.072,0.071,0.019,-0.089,0.003,-0.175,-0.213,-0.178,-0.138,-0.087
'0:00.259',-0.031,-0.106,-0.075,0.069,0.022,-0.091,0.000,-0.175,-0.213,-0.181,-0.138,-0.087
'0:00.260',-0.032,-0.107,-0.075,0.070,0.021,-0.091,0.000,-0.175,-0.213,-0.178,-0.138,-0.091
'0:00.261',-0.031,-0.109,-0.078,0.071,0.023,-0.094,0.000,-0.175,-0.219,-0.175,-0.138,-0.094
'0:00.262',-0.036,-0.112,-0.077,0.074,0.021,-0.095,0.006,-0.172,-0.219,-0.172,-0.141,-0.091
'0:00.263',-0.034,-0.112,-0.078,0.074,0.022,-0.096,0.012,-0.175,-0.219,-0.175,-0.144,-0.087
'0:00.264',-0.036,-0.114,-0.078,0.075,0.021,-0.096,0.012,-0.178,-0.213,-0.178,-0.141,-0.091
'0:00.265',-0.034,-0.116,-0.081,0.075,0.023,-0.099,0.019,-0.175,-0.206,-0.175,-0.138,-0.094
'0:00.266',-0.036,-0.114,-0.079,0.075,0.021,-0.097,0.012,-0.175,-0.206,-0.181,-0.138,-0.087
'0:00.267',-0.034,-0.116,-0.081,0.075,0.023,-0.099,0.012,-0.175,-0.206,-0.181,-0.138,-0.087
'0:00.268',-0.031,-0.112,-0.081,0.072,0.025,-0.097,0.012,-0.175,-0.209,-0.175,-0.141,-0.091
'0:00.269',-0.028,-0.112,-0.084,0.071,0.028,-0.099,0.012,-0.175,-0.213,-0.175,-0.144,-0.087
'0:00.270',-0.029,-0.116,-0.086,0.073,0.028,-0.101,0.012,-0.175,-0.209,-0.181,-0.141,-0.091
'0:00.271',-0.034,-0.112,-0.078,0.074,0.022,-0.096,0.012,-0.175,-0.206,-0.181,-0.138,-0.087
'0:00.272',-0.031,-0.114,-0.083,0.073,0.026,-0.099,0.012,-0.175,-0.209,-0.181,-0.141,-0.094
'0:00.273',-0.031,-0.116,-0.084,0.074,0.026,-0.100,0.012,-0.175,-0.213,-0.188,-0.144,-0.094
'0:00.274',-0.036,-0.116,-0.080,0.076,0.022,-0.098,0.012,-0.175,-0.213,-0.188,-0.141,-0.094
'0:00.275',-0.034,-0.119,-0.084,0.077,0.025,-0.102,0.012,-0.181,-0.213,-0.188,-0.138,-0.087
'0:00.276',-0.033,-0.119,-0.086,0.076,0.026,-0.102,0.012,-0.181,-0.213,-0.184,-0.138,-0.087
'0:00.277',-0.034,-0.119,-0.084,0.077,0.025,-0.102,0.012,-0.181,-0.213,-0.181,-0.138,-0.094
'0:00.278',-0.033,-0.116,-0.082,0.074,0.024,-0.099,0.012,-0.178,-0.213,-0.181,-0.138,-0.094
'0:00.279',-0.034,-0.112,-0.078,0.074,0.022,-0.096,0.012,-0.181,-0.213,-0.181,-0.138,-0.087
'0:00.280',-0.036,-0.117,-0.081,0.076,0.022,-0.099,0.012,-0.178,-0.213,-0.178,-0.138,-0.091
'0:00.281',-0.034,-0.116,-0.081,0.075,0.023,-0.099,0.012,-0.181,-0.213,-0.181,-0.138,-0.087
'0:00.282',-0.036,-0.116,-0.080,0.076,0.022,-0.098,0.012,-0.184,-0.213,-0.178,-0.138,-0.091
'0:00.283',-0.034,-0.116,-0.081,0.075,0.023,-0.099,0.012,-0.187,-0.213,-0.181,-0.138,-0.094
'0:00.284',-0.037,-0.120,-0.082,0.079,0.022,-0.101,0.012,-0.181,-0.213,-0.178,-0.141,-0.094
'0:00.285',-0.037,-0.122,-0.084,0.080,0.023,-0.103,0.012,-0.181,-0.213,-0.175,-0.144,-0.087
'0:00.286',-0.037,-0.123,-0.086,0.081,0.024,-0.104,0.016,-0.178,-0.213,-0.175,-0.144,-0.084
'0:00.287',-0.037,-0.125,-0.088,0.081,0.025,-0.106,0.019,-0.181,-0.213,-0.181,-0.144,-0.087
'0:00.288',-0.036,-0.125,-0.089,0.081,0.026,-0.107,0.016,-0.181,-0.216,-0.181,-0.144,-0.087
'0:00.289',-0.037,-0.128,-0.091,0.083,0.026,-0.109,0.012,-0.181,-0.219,-0.175,-0.144,-0.081
'0:00.290',-0.034,-0.125,-0.091,0.080,0.028,-0.108,0.012,-0.181,-0.219,-0.175,-0.144,-0.081
'0:00.291',-0.034,-0.125,-0.091,0.080,0.028,-0.108,0.012,-0.181,-0.219,-0.175,-0.144,-0.081
'0:00.292',-0.036,-0.131,-0.096,0.084,0.030,-0.114,0.012,-0.178,-0.216,-0.175,-0.144,-0.078
'0:00.293',-0.037,-0.134,-0.097,0.086,0.029,-0.116,0.012,-0.175,-0.213,-0.175,-0.144,-0.081
'0:00.294',-0.034,-0.131,-0.097,0.083,0.031,-0.114,0.012,-0.178,-0.216,-0.178,-0.153,-0.081
'0:00.295',-0.034,-0.128,-0.094,0.081,0.029,-0.111,0.012,-0.181,-0.219,-0.181,-0.150,-0.081
'0:00.296',-0.034,-0.128,-0.094,0.081,0.029,-0.111,0.012,-0.181,-0.219,-0.181,-0.147,-0.087
'0:00.297',-0.034,-0.125,-0.091,0.080,0.028,-0.108,0.012,-0.181,-0.219,-0.181,-0.150,-0.087
'0:00.298',-0.033,-0.125,-0.092,0.079,0.029,-0.109,0.016,-0.187,-0.222,-0.181,-0.144,-0.084
'0:00.299',-0.034,-0.125,-0.091,0.080,0.028,-0.108,0.019,-0.181,-0.225,-0.181,-0.144,-0.081
'0:00.300',-0.036,-0.128,-0.093,0.082,0.028,-0.111,0.012,-0.178,-0.222,-0.181,-0.144,-0.081
'0:00.301',-0.037,-0.128,-0.091,0.083,0.026,-0.109,0.012,-0.181,-0.219,-0.181,-0.144,-0.087
'0:00.302',-0.037,-0.129,-0.092,0.084,0.027,-0.111,0.012,-0.181,-0.216,-0.184,-0.147,-0.084
'0:00.303',-0.041,-0.134,-0.094,0.088,0.026,-0.114,0.019,-0.181,-0.213,-0.188,-0.144,-0.087
'0:00.304',-0.044,-0.136,-0.092,0.090,0.024,-0.114,0.009,-0.184,-0.213,-0.191,-0.141,-0.087
'0:00.305',-0.044,-0.137,-0.094,0.091,0.025,-0.116,0.006,-0.187,-0.213,-0.194,-0.144,-0.087
'0:00.306',-0.044,-0.136,-0.093,0.090,0.024,-0.114,0.016,-0.187,-0.209,-0.191,-0.144,-0.084
'0:00.307',-0.044,-0.137,-0.094,0.091,0.025,-0.116,0.019,-0.187,-0.206,-0.188,-0.144,-0.081
'0:00.308',-0.039,-0.139,-0.099,0.089,0.030,-0.119,0.022,-0.187,-0.216,-0.191,-0.147,-0.084
'0:00.309',-0.041,-0.137,-0.097,0.089,0.028,-0.117,0.019,-0.187,-0.213,-0.188,-0.144,-0.081
'0:00.310',-0.039,-0.134,-0.095,0.087,0.027,-0.115,0.019,-0.191,-0.209,-0.191,-0.144,-0.084
'0:00.311',-0.034,-0.134,-0.100,0.084,0.032,-0.117,0.019,-0.194,-0.213,-0.194,-0.144,-0.087
'0:00.312',-0.037,-0.133,-0.096,0.086,0.029,-0.114,0.019,-0.191,-0.213,-0.194,-0.147,-0.087
'0:00.313',-0.037,-0.131,-0.094,0.084,0.028,-0.112,0.019,-0.194,-0.213,-0.194,-0.150,-0.087
'0:00.314',-0.036,-0.132,-0.096,0.084,0.030,-0.114,0.019,-0.194,-0.213,-0.191,-0.150,-0.087
'0:00.315',-0.037,-0.134,-0.097,0.086,0.029,-0.116,0.019,-0.194,-0.213,-0.188,-0.150,-0.087
'0:00.316',-0.037,-0.134,-0.097,0.086,0.029,-0.116,0.019,-0.191,-0.213,-0.184,-0.150,-0.087
'0:00.317',-0.037,-0.134,-0.097,0.086,0.029,-0.116,0.019,-0.187,-0.213,-0.181,-0.150,-0.087
'0:00.318',-0.039,-0.134,-0.095,0.087,0.027,-0.115,0.016,-0.187,-0.213,-0.188,-0.150,-0.091
'0:00.319',-0.037,-0.134,-0.097,0.086,0.029,-0.116,0.012,-0.187,-0.213,-0.194,-0.150,-0.094
'0:00.320',-0.036,-0.131,-0.095,0.084,0.029,-0.113,0.012,-0.187,-0.213,-0.194,-0.153,-0.094
'0:00.321',-0.034,-0.131,-0.097,0.083,0.031,-0.114,0.012,-0.187,-0.213,-0.194,-0.144,-0.094
'0:00.322',-0.036,-0.136,-0.100,0.086,0.032,-0.118,0.012,-0.184,-0.216,-0.188,-0.141,-0.091
'0:00.323',-0.034,-0.137,-0.103,0.086,0.034,-0.121,0.012,-0.187,-0.213,-0.188,-0.138,-0.087
'0:00.324',-0.037,-0.141,-0.103,0.089,0.032,-0.122,0.012,-0.181,-0.206,-0.181,-0.141,-0.091
'0:00.325',-0.041,-0.144,-0.103,0.093,0.031,-0.124,0.012,-0.181,-0.206,-0.181,-0.144,-0.094
'0:00.326',-0.041,-0.137,-0.097,0.089,0.028,-0.117,0.012,-0.187,-0.203,-0.181,-0.141,-0.091
'0:00.327',-0.041,-0.134,-0.094,0.088,0.026,-0.114,0.012,-0.187,-0.206,-0.188,-0.144,-0.087
'0:00.328',-0.034,-0.130,-0.096,0.083,0.031,-0.113,0.012,-0.187,-0.209,-0.178,-0.144,-0.097
'0:00.329',-0.037,-0.131,-0.094,0.084,0.028,-0.112,0.019,-0.187,-0.206,-0.175,-0.144,-0.094
'0:00.330',-0.034,-0.131,-0.097,0.083,0.031,-0.114,0.019,-0.191,-0.213,-0.181,-0.144,-0.094
'0:00.331',-0.034,-0.131,-0.097,0.083,0.031,-0.114,0.019,-0.194,-0.213,-0.181,-0.144,-0.094
'0:00.332',-0.036,-0.133,-0.098,0.084,0.031,-0.116,0.012,-0.191,-0.213,-0.184,-0.147,-0.094
'0:00.333',-0.037,-0.131,-0.094,0.084,0.028,-0.112,0.012,-0.187,-0.213,-0.188,-0.150,-0.094
'0:00.334',-0.039,-0.132,-0.094,0.086,0.027,-0.113,0.016,-0.187,-0.213,-0.188,-0.147,-0.094
'0:00.335',-0.037,-0.134,-0.097,0.086,0.029,-0.116,0.019,-0.194,-0.213,-0.188,-0.144,-0.094
'0:00.336',-0.041,-0.133,-0.093,0.087,0.026,-0.113,0.019,-0.194,-0.209,-0.191,-0.147,-0.097
'0:00.337',-0.041,-0.131,-0.091,0.086,0.025,-0.111,0.019,-0.194,-0.206,-0.194,-0.150,-0.100
'0:00.338',-0.041,-0.131,-0.091,0.086,0.025,-0.111,0.019,-0.194,-0.206,-0.191,-0.147,-0.097
'0:00.339',-0.037,-0.131,-0.094,0.084,0.028,-0.112,0.019,-0.194,-0.206,-0.188,-0.150,-0.094
'0:00.340',-0.041,-0.134,-0.094,0.088,0.026,-0.114,0.019,-0.191,-0.206,-0.188,-0.147,-0.091
'0:00.341',-0.041,-0.134,-0.094,0.088,0.026,-0.114,0.019,-0.187,-0.206,-0.188,-0.150,-0.087
'0:00.342',-0.042,-0.137,-0.096,0.090,0.027,-0.117,0.016,-0.187,-0.206,-0.184,-0.156,-0.097
'0:00.343',-0.041,-0.144,-0.103,0.093,0.031,-0.124,0.012,-0.187,-0.206,-0.181,-0.150,-0.094
'0:00.344',-0.039,-0.141,-0.101,0.090,0.031,-0.121,0.016,-0.187,-0.216,-0.181,-0.153,-0.100
'0:00.345',-0.037,-0.141,-0.103,0.089,0.032,-0.122,0.019,-0.187,-0.213,-0.181,-0.150,-0.094
'0:00.346',-0.033,-0.134,-0.101,0.084,0.034,-0.118,0.019,-0.187,-0.213,-0.191,-0.153,-0.097
'0:00.347',-0.034,-0.131,-0.097,0.083,0.031,-0.114,0.019,-0.187,-0.213,-0.188,-0.156,-0.094
'0:00.348',-0.039,-0.134,-0.096,0.087,0.028,-0.115,0.019,-0.187,-0.213,-0.188,-0.147,-0.094
'0:00.349',-0.041,-0.134,-0.094,0.088,0.026,-0.114,0.019,-0.187,-0.213,-0.188,-0.144,-0.094
'0:00.350',-0.041,-0.132,-0.092,0.087,0.026,-0.112,0.016,-0.184,-0.213,-0.194,-0.147,-0.094
'0:00.351',-0.041,-0.134,-0.094,0.088,0.026,-0.114,0.012,-0.181,-0.213,-0.188,-0.144,-0.094
'0:00.352',-0.041,-0.137,-0.097,0.089,0.028,-0.117,0.012,-0.187,-0.209,-0.188,-0.141,-0.094
'0:00.353',-0.041,-0.141,-0.100,0.091,0.029,-0.121,0.012,-0.181,-0.206,-0.181,-0.138,-0.094
'0:00.354',-0.041,-0.144,-0.103,0.093,0.031,-0.124,0.012,-0.181,-0.213,-0.175,-0.141,-0.087
'0:00.355',-0.037,-0.141,-0.103,0.089,0.032,-0.122,0.012,-0.187,-0.213,-0.181,-0.144,-0.094
'0:00.356',-0.037,-0.139,-0.102,0.089,0.032,-0.121,0.009,-0.187,-0.213,-0.181,-0.144,-0.097
'0:00.357',-0.037,-0.137,-0.100,0.088,0.031,-0.119,0.006,-0.187,-0.213,-0.181,-0.144,-0.100
'0:00.358',-0.041,-0.141,-0.100,0.091,0.029,-0.121,0.006,-0.187,-0.213,-0.184,-0.144,-0.097
'0:00.359',-0.041,-0.137,-0.097,0.089,0.028,-0.117,0.006,-0.187,-0.213,-0.188,-0.144,-0.094
'0:00.360',-0.041,-0.136,-0.096,0.089,0.027,-0.116,0.009,-0.191,-0.213,-0.191,-0.147,-0.097
'0:00.361',-0.041,-0.131,-0.091,0.086,0.025,-0.111,0.012,-0.194,-0.213,-0.194,-0.150,-0.100
'0:00.362',-0.037,-0.131,-0.094,0.084,0.028,-0.112,0.016,-0.191,-0.213,-0.191,-0.150,-0.097
'0:00.363',-0.034,-0.131,-0.097,0.083,0.031,-0.114,0.019,-0.187,-0.213,-0.188,-0.150,-0.094
'0:00.364',-0.036,-0.131,-0.096,0.084,0.030,-0.114,0.019,-0.191,-0.213,-0.188,-0.150,-0.094
'0:00.365',-0.037,-0.134,-0.097,0.086,0.029,-0.116,0.019,-0.194,-0.213,-0.188,-0.150,-0.094
'0:00.366',-0.037,-0.132,-0.095,0.085,0.029,-0.114,0.019,-0.191,-0.213,-0.188,-0.147,-0.094
'0:00.367',-0.037,-0.137,-0.100,0.088,0.031,-0.119,0.019,-0.187,-0.213,-0.188,-0.144,-0.094
'0:00.368',-0.041,-0.137,-0.097,0.089,0.028,-0.117,0.019,-0.187,-0.209,-0.184,-0.150,-0.091
'0:00.369',-0.044,-0.137,-0.094,0.091,0.025,-0.116,0.019,-0.187,-0.206,-0.181,-0.144,-0.087
'0:00.370',-0.043,-0.139,-0.096,0.091,0.027,-0.117,0.019,-0.187,-0.206,-0.181,-0.150,-0.087
'0:00.371',-0.041,-0.141,-0.100,0.091,0.029,-0.121,0.019,-0.187,-0.206,-0.181,-0.150,-0.094
'0:00.372',-0.039,-0.141,-0.101,0.090,0.031,-0.121,0.019,-0.184,-0.216,-0.191,-0.147,-0.097
'0:00.373',-0.037,-0.141,-0.103,0.089,0.032,-0.122,0.019,-0.187,-0.213,-0.194,-0.144,-0.100
'0:00.374',-0.037,-0.141,-0.103,0.089,0.032,-0.122,0.016,-0.191,-0.213,-0.188,-0.147,-0.097
'0:00.375',-0.037,-0.141,-0.103,0.089,0.032,-0.122,0.012,-0.187,-0.213,-0.188,-0.150,-0.100
'0:00.376',-0.041,-0.141,-0.100,0.091,0.029,-0.121,0.022,-0.184,-0.209,-0.184,-0.141,-0.094
'0:00.377',-0.041,-0.144,-0.103,0.093,0.031,-0.124,0.019,-0.187,-0.206,-0.181,-0.138,-0.094
'0:00.378',-0.041,-0.139,-0.099,0.090,0.029,-0.119,0.019,-0.184,-0.206,-0.188,-0.144,-0.097
'0:00.379',-0.037,-0.137,-0.100,0.088,0.031,-0.119,0.019,-0.187,-0.206,-0.188,-0.144,-0.094
'0:00.380',-0.037,-0.134,-0.097,0.086,0.029,-0.116,0.016,-0.181,-0.206,-0.191,-0.147,-0.091
'0:00.381',-0.037,-0.131,-0.094,0.084,0.028,-0.112,0.012,-0.181,-0.206,-0.194,-0.150,-0.094
'0:00.382',-0.036,-0.128,-0.092,0.083,0.027,-0.110,0.012,-0.184,-0.206,-0.184,-0.150,-0.097
'0:00.383',-0.037,-0.128,-0.091,0.083,0.026,-0.109,0.012,-0.187,-0.213,-0.188,-0.150,-0.100
'0:00.384',-0.036,-0.128,-0.093,0.082,0.028,-0.111,0.012,-0.187,-0.213,-0.188,-0.147,-0.100
'0:00.385',-0.037,-0.128,-0.091,0.083,0.026,-0.109,0.012,-0.187,-0.213,-0.188,-0.144,-0.100
'0:00.386',-0.037,-0.127,-0.089,0.083,0.026,-0.108,0.012,-0.191,-0.209,-0.188,-0.147,-0.103
'0:00.387',-0.037,-0.125,-0.088,0.081,0.025,-0.106,0.012,-0.187,-0.213,-0.181,-0.144,-0.100
'0:00.388',-0.037,-0.131,-0.094,0.084,0.028,-0.112,0.009,-0.194,-0.209,-0.191,-0.147,-0.097
'0:00.389',-0.037,-0.134,-0.097,0.086,0.029,-0.116,0.012,-0.194,-0.206,-0.188,-0.144,-0.094
'0:00.390',-0.042,-0.134,-0.093,0.088,0.025,-0.114,0.016,-0.194,-0.206,-0.188,-0.134,-0.094
'0:00.391',-0.041,-0.137,-0.097,0.089,0.028,-0.117,0.012,-0.194,-0.206,-0.188,-0.138,-0.094
'0:00.392',-0.042,-0.137,-0.096,0.090,0.027,-0.117,0.012,-0.191,-0.200,-0.184,-0.138,-0.094
'0:00.393',-0.047,-0.137,-0.091,0.093,0.022,-0.114,0.012,-0.187,-0.200,-0.181,-0.138,-0.087
'0:00.394',-0.044,-0.134,-0.091,0.089,0.023,-0.112,0.012,-0.187,-0.206,-0.184,-0.141,-0.087
'0:00.395',-0.044,-0.131,-0.088,0.088,0.022,-0.109,0.012,-0.187,-0.206,-0.188,-0.144,-0.087
'0:00.396',-0.041,-0.132,-0.092,0.087,0.026,-0.112,0.012,-0.187,-0.206,-0.184,-0.141,-0.087
'0:00.397',-0.041,-0.134,-0.094,0.088,0.026,-0.114,0.012,-0.187,-0.206,-0.188,-0.138,-0.087
'0:00.398',-0.037,-0.136,-0.098,0.087,0.030,-0.117,0.012,-0.191,-0.206,-0.191,-0.138,-0.084
'0:00.399',-0.037,-0.141,-0.103,0.089,0.032,-0.122,0.012,-0.194,-0.206,-0.188,-0.138,-0.081
'0:00.400',-0.041,-0.134,-0.094,0.088,0.026,-0.114,0.012,-0.194,-0.209,-0.184,-0.138,-0.084
'0:00.401',-0.037,-0.134,-0.097,0.086,0.029,-0.116,0.012,-0.187,-0.213,-0.181,-0.138,-0.087
'0:00.402',-0.039,-0.136,-0.096,0.088,0.028,-0.116,0.012,-0.191,-0.213,-0.178,-0.141,-0.081
'0:00.403',-0.041,-0.137,-0.097,0.089,0.028,-0.117,0.012,-0.187,-0.213,-0.175,-0.138,-0.081
'0:00.404',-0.039,-0.133,-0.094,0.086,0.027,-0.114,0.012,-0.187,-0.213,-0.175,-0.144,-0.081
'0:00.405',-0.037,-0.131,-0.094,0.084,0.028,-0.112,0.012,-0.187,-0.213,-0.181,-0.144,-0.087
'0:00.406',-0.041,-0.136,-0.095,0.088,0.027,-0.116,0.012,-0.191,-0.209,-0.181,-0.144,-0.084
'0:00.407',-0.041,-0.137,-0.097,0.089,0.028,-0.117,0.012,-0.187,-0.206,-0.175,-0.138,-0.087
'0:00.408',-0.039,-0.137,-0.098,0.089,0.029,-0.118,0.012,-0.184,-0.209,-0.175,-0.144,-0.087
'0:00.409',-0.037,-0.137,-0.100,0.088,0.031,-0.119,0.012,-0.187,-0.213,-0.175,-0.144,-0.087
'0:00.410',-0.037,-0.136,-0.099,0.087,0.031,-0.117,0.009,-0.187,-0.213,-0.175,-0.144,-0.084
'0:00.411',-0.037,-0.134,-0.097,0.086,0.029,-0.116,0.012,-0.187,-0.213,-0.175,-0.144,-0.081
'0:00.412',-0.037,-0.131,-0.094,0.084,0.028,-0.112,0.009,-0.187,-0.209,-0.175,-0.144,-0.084
'0:00.413',-0.037,-0.131,-0.094,0.084,0.028,-0.112,0.012,-0.187,-0.206,-0.175,-0.144,-0.081
'0:00.414',-0.034,-0.134,-0.100,0.084,0.032,-0.117,0.009,-0.194,-0.209,-0.175,-0.144,-0.084
'0:00.415',-0.034,-0.134,-0.100,0.084,0.032,-0.117,0.012,-0.194,-0.206,-0.175,-0.144,-0.087
'0:00.416',-0.036,-0.136,-0.100,0.086,0.032,-0.118,0.016,-0.191,-0.206,-0.175,-0.144,-0.091
'0:00.417',-0.034,-0.134,-0.100,0.084,0.032,-0.117,0.019,-0.187,-0.206,-0.175,-0.144,-0.087
'0:00.418',-0.037,-0.133,-0.096,0.086,0.029,-0.114,0.016,-0.184,-0.203,-0.175,-0.134,-0.087
'0:00.419',-0.037,-0.134,-0.097,0.086,0.029,-0.116,0.012,-0.181,-0.200,-0.175,-0.138,-0.087
'0:00.420',-0.036,-0.134,-0.098,0.086,0.031,-0.116,0.016,-0.181,-0.200,-0.169,-0.131,-0.087
'0:00.421',-0.034,-0.134,-0.100,0.084,0.032,-0.117,0.019,-0.181,-0.200,-0.175,-0.131,-0.087
'0:00.422',-0.036,-0.137,-0.102,0.087,0.033,-0.120,0.019,-0.181,-0.200,-0.175,-0.141,-0.087
'0:00.423',-0.034,-0.137,-0.103,0.086,0.034,-0.121,0.019,-0.181,-0.200,-0.175,-0.138,-0.087
'0:00.424',-0.036,-0.134,-0.099,0.085,0.031,-0.117,0.019,-0.181,-0.197,-0.175,-0.131,-0.091
'0:00.425',-0.034,-0.131,-0.097,0.083,0.031,-0.114,0.019,-0.181,-0.200,-0.175,-0.131,-0.087
'0:00.426',-0.031,-0.131,-0.100,0.081,0.034,-0.116,0.016,-0.181,-0.200,-0.175,-0.131,-0.087
'0:00.427',-0.028,-0.131,-0.103,0.080,0.038,-0.117,0.012,-0.181,-0.200,-0.175,-0.131,-0.087
'0:00.428',-0.031,-0.136,-0.104,0.084,0.036,-0.120,0.012,-0.187,-0.200,-0.181,-0.138,-0.094
'0:00.429',-0.031,-0.141,-0.109,0.086,0.039,-0.125,0.012,-0.187,-0.200,-0.181,-0.138,-0.087
'0:00.430',-0.032,-0.144,-0.111,0.088,0.039,-0.127,0.006,-0.184,-0.200,-0.181,-0.138,-0.097
'0:00.431',-0.031,-0.147,-0.116,0.089,0.042,-0.131,0.006,-0.187,-0.200,-0.181,-0.138,-0.094
'0:00.432',-0.031,-0.145,-0.114,0.088,0.041,-0.129,0.003,-0.187,-0.206,-0.181,-0.134,-0.097
'0:00.433',-0.028,-0.147,-0.119,0.088,0.045,-0.133,0.000,-0.187,-0.206,-0.181,-0.138,-0.094
'0:00.434',-0.022,-0.142,-0.120,0.082,0.049,-0.131,0.006,-0.184,-0.203,-0.175,-0.138,-0.091
'0:00.435',-0.019,-0.141,-0.122,0.080,0.051,-0.131,0.006,-0.187,-0.200,-0.175,-0.138,-0.094
'0:00.436',-0.020,-0.137,-0.118,0.079,0.049,-0.127,0.006,-0.178,-0.197,-0.178,-0.138,-0.087
'0:00.437',-0.019,-0.137,-0.119,0.078,0.050,-0.128,0.012,-0.175,-0.194,-0.181,-0.138,-0.087
'0:00.438',-0.019,-0.125,-0.106,0.072,0.044,-0.116,0.016,-0.166,-0.194,-0.175,-0.138,-0.084
'0:00.439',-0.016,-0.112,-0.097,0.064,0.041,-0.105,0.019,-0.169,-0.194,-0.175,-0.138,-0.081
'0:00.440',-0.017,-0.102,-0.085,0.059,0.034,-0.094,0.025,-0.153,-0.187,-0.169,-0.128,-0.078
'0:00.441',-0.019,-0.091,-0.072,0.055,0.026,-0.081,0.031,-0.150,-0.181,-0.163,-0.119,-0.075
'0:00.442',-0.016,-0.082,-0.067,0.049,0.026,-0.075,0.034,-0.144,-0.169,-0.153,-0.113,-0.072
'0:00.443',-0.012,-0.075,-0.063,0.044,0.025,-0.069,0.037,-0.137,-0.162,-0.144,-0.106,-0.063
'0:00.444',-0.012,-0.071,-0.058,0.042,0.022,-0.064,0.041,-0.128,-0.156,-0.141,-0.100,-0.059
'0:00.445',-0.012,-0.062,-0.050,0.038,0.019,-0.056,0.044,-0.125,-0.156,-0.137,-0.100,-0.056
'0:00.446',-0.012,-0.056,-0.044,0.034,0.016,-0.050,0.044,-0.122,-0.153,-0.131,-0.094,-0.047
'0:00.447',-0.012,-0.050,-0.038,0.031,0.012,-0.044,0.044,-0.119,-0.150,-0.131,-0.094,-0.044
'0:00.448',-0.016,-0.053,-0.038,0.034,0.011,-0.046,0.053,-0.122,-0.153,-0.131,-0.091,-0.044
'0:00.449',-0.016,-0.053,-0.038,0.034,0.011,-0.046,0.050,-0.125,-0.150,-0.131,-0.088,-0.044
'0:00.450',-0.017,-0.050,-0.033,0.034,0.008,-0.042,0.050,-0.125,-0.147,-0.125,-0.091,-0.044
'0:00.451',-0.016,-0.050,-0.034,0.033,0.009,-0.042,0.050,-0.125,-0.144,-0.131,-0.094,-0.044
'0:00.452',-0.005,-0.053,-0.048,0.029,0.021,-0.051,0.047,-0.128,-0.144,-0.131,-0.094,-0.041
'0:00.453',0.000,-0.056,-0.056,0.028,0.028,-0.056,0.044,-0.131,-0.144,-0.131,-0.094,-0.038
'0:00.454',0.003,-0.061,-0.064,0.029,0.033,-0.062,0.034,-0.125,-0.147,-0.131,-0.100,-0.047
'0:00.455',0.006,-0.062,-0.069,0.028,0.038,-0.066,0.031,-0.125,-0.150,-0.137,-0.100,-0.050
'0:00.456',0.008,-0.062,-0.071,0.027,0.039,-0.067,0.022,-0.128,-0.150,-0.134,-0.106,-0.047
'0:00.457',0.009,-0.062,-0.072,0.027,0.041,-0.067,0.012,-0.131,-0.156,-0.137,-0.106,-0.050
'0:00.458',0.011,-0.056,-0.068,0.022,0.039,-0.062,0.006,-0.131,-0.153,-0.131,-0.097,-0.044
'0:00.459',0.009,-0.053,-0.063,0.022,0.036,-0.058,0.000,-0.131,-0.150,-0.125,-0.094,-0.044
'0:00.460',0.012,-0.046,-0.058,0.017,0.035,-0.052,0.003,-0.122,-0.144,-0.122,-0.088,-0.041
'0:00.461',0.019,-0.037,-0.056,0.009,0.038,-0.047,0.000,-0.119,-0.138,-0.125,-0.088,-0.038
'0:00.462',0.019,-0.034,-0.053,0.008,0.036,-0.044,0.009,-0.112,-0.131,-0.119,-0.081,-0.041
'0:00.463',0.016,-0.031,-0.047,0.008,0.031,-0.039,0.012,-0.106,-0.131,-0.119,-0.075,-0.038
'0:00.464',0.014,-0.025,-0.039,0.006,0.027,-0.032,0.016,-0.103,-0.131,-0.112,-0.075,-0.034
'0:00.465',0.012,-0.019,-0.031,0.003,0.022,-0.025,0.025,-0.100,-0.125,-0.106,-0.069,-0.025
'0:00.466',0.014,-0.014,-0.028,0.001,0.021,-0.021,0.025,-0.100,-0.122,-0.103,-0.066,-0.025
'0:00.467',0.016,-0.006,-0.022,-0.004,0.019,-0.014,0.025,-0.100,-0.119,-0.100,-0.063,-0.019
'0:00.468',0.016,-0.005,-0.021,-0.005,0.018,-0.013,0.022,-0.106,-0.119,-0.100,-0.063,-0.019
'0:00.469',0.016,0.000,-0.016,-0.007,0.016,-0.008,0.019,-0.106,-0.119,-0.100,-0.056,-0.019
'0:00.470',0.012,-0.003,-0.016,-0.004,0.014,-0.009,0.019,-0.106,-0.122,-0.100,-0.059,-0.019
'0:00.471',0.009,-0.003,-0.013,-0.003,0.011,-0.008,0.019,-0.112,-0.119,-0.100,-0.063,-0.019
'0:00.472',0.008,0.000,-0.008,-0.004,0.008,-0.004,0.019,-0.109,-0.125,-0.100,-0.066,-0.016
'0:00.473',0.006,0.000,-0.006,-0.003,0.006,-0.003,0.019,-0.112,-0.125,-0.106,-0.063,-0.019
'0:00.474',0.003,-0.005,-0.008,0.001,0.006,-0.007,0.019,-0.112,-0.128,-0.103,-0.063,-0.019
'0:00.475',0.003,-0.003,-0.006,0.000,0.004,-0.005,0.019,-0.112,-0.131,-0.100,-0.063,-0.019
'0:00.476',0.000,-0.006,-0.006,0.003,0.003,-0.006,0.022,-0.112,-0.131,-0.100,-0.069,-0.025
'0:00.477',0.000,-0.006,-0.006,0.003,0.003,-0.006,0.025,-0.112,-0.138,-0.106,-0.069,-0.025
'0:00.478',0.002,-0.014,-0.016,0.006,0.009,-0.016,0.022,-0.116,-0.138,-0.106,-0.069,-0.025
'0:00.479',0.000,-0.019,-0.019,0.009,0.009,-0.019,0.019,-0.112,-0.131,-0.106,-0.075,-0.025
'0:00.480',0.002,-0.025,-0.027,0.012,0.014,-0.026,0.022,-0.116,-0.131,-0.103,-0.075,-0.028
'0:00.481',0.000,-0.031,-0.031,0.016,0.016,-0.031,0.019,-0.112,-0.125,-0.106,-0.075,-0.025
'0:00.482',-0.001,-0.041,-0.039,0.021,0.019,-0.040,0.022,-0.116,-0.131,-0.106,-0.072,-0.025
'0:00.483',0.003,-0.044,-0.047,0.021,0.025,-0.046,0.025,-0.125,-0.131,-0.112,-0.075,-0.025
'0:00.484',0.003,-0.050,-0.053,0.024,0.028,-0.052,0.019,-0.131,-0.141,-0.112,-0.075,-0.028
'0:00.485',0.000,-0.059,-0.059,0.030,0.029,-0.059,0.019,-0.131,-0.138,-0.112,-0.075,-0.025
'0:00.486',0.003,-0.061,-0.064,0.029,0.034,-0.063,0.019,-0.128,-0.144,-0.122,-0.075,-0.028
'0:00.487',0.003,-0.066,-0.069,0.031,0.036,-0.067,0.019,-0.131,-0.144,-0.125,-0.075,-0.031
'0:00.488',0.003,-0.067,-0.071,0.033,0.037,-0.069,0.009,-0.141,-0.150,-0.131,-0.081,-0.034
'0:00.489',0.003,-0.072,-0.075,0.034,0.039,-0.074,0.006,-0.144,-0.156,-0.131,-0.088,-0.044
'0:00.490',0.003,-0.073,-0.076,0.035,0.039,-0.075,0.006,-0.141,-0.156,-0.134,-0.088,-0.044
'0:00.491',0.003,-0.081,-0.084,0.039,0.044,-0.083,0.006,-0.144,-0.156,-0.137,-0.088,-0.044
'0:00.492',0.003,-0.086,-0.089,0.041,0.046,-0.087,0.009,-0.147,-0.156,-0.134,-0.088,-0.041
'0:00.493',0.003,-0.087,-0.091,0.043,0.047,-0.089,0.006,-0.150,-0.156,-0.137,-0.088,-0.044
'0:00.494',0.004,-0.084,-0.089,0.040,0.046,-0.087,0.009,-0.150,-0.153,-0.137,-0.088,-0.041
'0:00.495',0.003,-0.081,-0.084,0.039,0.044,-0.083,0.006,-0.150,-0.150,-0.137,-0.088,-0.038
'0:00.496',-0.001,-0.077,-0.076,0.039,0.037,-0.076,0.003,-0.147,-0.156,-0.137,-0.088,-0.034
'0:00.497',-0.003,-0.075,-0.072,0.039,0.034,-0.074,0.000,-0.150,-0.156,-0.137,-0.088,-0.031
'0:00.498',-0.003,-0.075,-0.072,0.039,0.034,-0.074,0.000,-0.150,-0.156,-0.137,-0.094,-0.034
'0:00.499',-0.006,-0.072,-0.066,0.039,0.029,-0.069,0.000,-0.150,-0.156,-0.137,-0.094,-0.038
'0:00.500',-0.008,-0.076,-0.069,0.042,0.031,-0.072,0.003,-0.156,-0.153,-0.144,-0.103,-0.038
'0:00.501',-0.012,-0.081,-0.069,0.047,0.028,-0.075,0.006,-0.156,-0.156,-0.144,-0.106,-0.044
'0:00.502',-0.019,-0.087,-0.069,0.053,0.025,-0.078,0.006,-0.153,-0.153,-0.141,-0.100,-0.044
'0:00.503',-0.025,-0.094,-0.069,0.059,0.022,-0.081,0.012,-0.150,-0.150,-0.144,-0.094,-0.044
'0:00.504',-0.022,-0.097,-0.075,0.059,0.026,-0.086,0.006,-0.150,-0.156,-0.144,-0.097,-0.050
'0:00.505',-0.022,-0.100,-0.078,0.061,0.028,-0.089,0.006,-0.156,-0.156,-0.144,-0.094,-0.050
'0:00.506',-0.025,-0.105,-0.080,0.065,0.027,-0.092,0.006,-0.159,-0.162,-0.150,-0.097,-0.056
'0:00.507',-0.028,-0.112,-0.084,0.071,0.028,-0.099,0.006,-0.162,-0.169,-0.156,-0.100,-0.063
'0:00.508',-0.032,-0.123,-0.091,0.078,0.029,-0.107,0.006,-0.169,-0.178,-0.159,-0.109,-0.066
'0:00.509',-0.041,-0.131,-0.091,0.086,0.025,-0.111,0.006,-0.175,-0.181,-0.163,-0.113,-0.069
'0:00.510',-0.042,-0.137,-0.096,0.090,0.027,-0.117,0.006,-0.178,-0.184,-0.163,-0.122,-0.069
'0:00.511',-0.044,-0.141,-0.097,0.093,0.026,-0.119,0.006,-0.181,-0.194,-0.169,-0.131,-0.075
'0:00.512',-0.047,-0.142,-0.096,0.095,0.024,-0.119,0.006,-0.184,-0.197,-0.172,-0.131,-0.075
'0:00.513',-0.047,-0.144,-0.097,0.096,0.025,-0.121,0.006,-0.187,-0.194,-0.175,-0.138,-0.075
'0:00.514',-0.047,-0.145,-0.098,0.096,0.026,-0.122,0.003,-0.194,-0.203,-0.181,-0.138,-0.084
'0:00.515',-0.047,-0.144,-0.097,0.096,0.025,-0.121,0.000,-0.194,-0.200,-0.181,-0.138,-0.087
'0:00.516',-0.047,-0.147,-0.100,0.097,0.026,-0.124,0.000,-0.194,-0.213,-0.184,-0.141,-0.087
'0:00.517',-0.047,-0.147,-0.100,0.097,0.026,-0.124,0.000,-0.194,-0.213,-0.188,-0.144,-0.087
'0:00.518',-0.046,-0.147,-0.101,0.096,0.027,-0.124,0.000,-0.197,-0.213,-0.184,-0.147,-0.091
'0:00.519',-0.044,-0.147,-0.103,0.096,0.029,-0.125,0.000,-0.194,-0.213,-0.181,-0.150,-0.094
'0:00.520',-0.044,-0.147,-0.103,0.096,0.029,-0.125,0.000,-0.194,-0.209,-0.181,-0.150,-0.091
'0:00.521',-0.044,-0.147,-0.103,0.096,0.029,-0.125,0.000,-0.194,-0.206,-0.181,-0.150,-0.087
'0:00.522',-0.045,-0.150,-0.105,0.097,0.030,-0.127,0.000,-0.194,-0.209,-0.181,-0.153,-0.091
'0:00.523',-0.050,-0.147,-0.097,0.099,0.023,-0.122,0.000,-0.194,-0.213,-0.181,-0.156,-0.087
'0:00.524',-0.050,-0.150,-0.100,0.100,0.025,-0.125,0.003,-0.194,-0.209,-0.184,-0.147,-0.087
'0:00.525',-0.053,-0.153,-0.100,0.103,0.023,-0.127,0.006,-0.194,-0.206,-0.181,-0.144,-0.087
'0:00.526',-0.051,-0.153,-0.102,0.102,0.025,-0.127,0.003,-0.191,-0.203,-0.191,-0.153,-0.094
'0:00.527',-0.050,-0.153,-0.103,0.102,0.026,-0.128,0.000,-0.194,-0.206,-0.194,-0.156,-0.094
'0:00.528',-0.050,-0.149,-0.099,0.099,0.024,-0.124,0.000,-0.197,-0.206,-0.191,-0.153,-0.097
'0:00.529',-0.050,-0.150,-0.100,0.100,0.025,-0.125,0.000,-0.200,-0.206,-0.188,-0.150,-0.094
'0:00.530',-0.053,-0.153,-0.100,0.103,0.023,-0.127,-0.003,-0.200,-0.203,-0.188,-0.150,-0.097
'0:00.531',-0.053,-0.153,-0.100,0.103,0.023,-0.127,-0.006,-0.200,-0.200,-0.188,-0.156,-0.094
'0:00.532',-0.053,-0.152,-0.099,0.102,0.022,-0.126,-0.006,-0.203,-0.203,-0.184,-0.156,-0.094
'0:00.533',-0.053,-0.150,-0.097,0.102,0.022,-0.124,-0.006,-0.206,-0.206,-0.188,-0.156,-0.094
'0:00.534',-0.052,-0.149,-0.097,0.101,0.022,-0.123,-0.003,-0.206,-0.209,-0.194,-0.159,-0.097
'0:00.535',-0.050,-0.147,-0.097,0.099,0.023,-0.122,-0.006,-0.206,-0.206,-0.194,-0.156,-0.100
'0:00.536',-0.050,-0.147,-0.097,0.099,0.023,-0.122,-0.006,-0.209,-0.206,-0.197,-0.153,-0.109
'0:00.537',-0.050,-0.147,-0.097,0.099,0.023,-0.122,-0.006,-0.212,-0.213,-0.200,-0.150,-0.113
'0:00.538',-0.050,-0.144,-0.094,0.097,0.022,-0.119,0.000,-0.209,-0.216,-0.197,-0.150,-0.106
'0:00.539',-0.050,-0.144,-0.094,0.097,0.022,-0.119,0.000,-0.206,-0.213,-0.194,-0.150,-0.106
'0:00.540',-0.054,-0.148,-0.094,0.101,0.019,-0.121,0.003,-0.206,-0.216,-0.194,-0.150,-0.109
'0:00.541',-0.053,-0.147,-0.094,0.100,0.020,-0.121,0.000,-0.206,-0.213,-0.194,-0.150,-0.113
'0:00.542',-0.056,-0.153,-0.097,0.105,0.020,-0.125,-0.003,-0.203,-0.213,-0.197,-0.150,-0.106
'0:00.543',-0.059,-0.156,-0.097,0.108,0.019,-0.127,0.000,-0.200,-0.213,-0.194,-0.150,-0.106
'0:00.544',-0.058,-0.153,-0.095,0.106,0.018,-0.124,0.003,-0.197,-0.213,-0.194,-0.156,-0.103
'0:00.545',-0.056,-0.150,-0.094,0.103,0.019,-0.122,0.000,-0.194,-0.213,-0.200,-0.156,-0.113
'0:00.546',-0.058,-0.146,-0.088,0.102,0.014,-0.117,0.000,-0.194,-0.213,-0.197,-0.153,-0.106
'0:00.547',-0.053,-0.147,-0.094,0.100,0.020,-0.121,0.000,-0.194,-0.213,-0.194,-0.156,-0.106
'0:00.548',-0.055,-0.144,-0.089,0.099,0.017,-0.116,-0.003,-0.187,-0.213,-0.194,-0.156,-0.106
'0:00.549',-0.056,-0.144,-0.088,0.100,0.016,-0.116,-0.006,-0.194,-0.213,-0.194,-0.156,-0.106
'0:00.550',-0.054,-0.142,-0.088,0.099,0.017,-0.116,-0.003,-0.197,-0.209,-0.194,-0.153,-0.109
'0:00.551',-0.056,-0.144,-0.088,0.100,0.016,-0.116,0.000,-0.194,-0.213,-0.194,-0.150,-0.100
'0:00.552',-0.053,-0.145,-0.092,0.099,0.019,-0.119,0.003,-0.194,-0.213,-0.194,-0.147,-0.100
'0:00.553',-0.053,-0.141,-0.088,0.097,0.017,-0.114,0.000,-0.194,-0.213,-0.194,-0.144,-0.100
'0:00.554',-0.056,-0.144,-0.088,0.100,0.016,-0.116,0.000,-0.194,-0.213,-0.188,-0.144,-0.103
'0:00.555',-0.056,-0.144,-0.088,0.100,0.016,-0.116,0.000,-0.194,-0.213,-0.194,-0.144,-0.106
'0:00.556',-0.055,-0.144,-0.089,0.099,0.017,-0.116,0.000,-0.194,-0.206,-0.188,-0.144,-0.103
'0:00.557',-0.056,-0.144,-0.088,0.100,0.016,-0.116,0.000,-0.194,-0.213,-0.188,-0.144,-0.100
'0:00.558',-0.053,-0.145,-0.092,0.099,0.019,-0.119,0.000,-0.194,-0.213,-0.194,-0.144,-0.103
'0:00.559',-0.053,-0.147,-0.094,0.100,0.020,-0.121,0.000,-0.194,-0.213,-0.194,-0.144,-0.106
'0:00.560',-0.053,-0.144,-0.091,0.099,0.019,-0.117,-0.009,-0.197,-0.206,-0.188,-0.147,-0.106
'0:00.561',-0.050,-0.134,-0.084,0.093,0.017,-0.109,-0.006,-0.194,-0.206,-0.188,-0.150,-0.100
'0:00.562',-0.050,-0.136,-0.086,0.093,0.018,-0.111,-0.003,-0.194,-0.209,-0.191,-0.147,-0.103
'0:00.563',-0.050,-0.137,-0.088,0.094,0.019,-0.112,0.000,-0.194,-0.213,-0.188,-0.150,-0.100
'0:00.564',-0.053,-0.137,-0.084,0.096,0.016,-0.111,0.000,-0.197,-0.209,-0.188,-0.150,-0.103
'0:00.565',-0.053,-0.144,-0.091,0.099,0.019,-0.117,0.006,-0.194,-0.206,-0.188,-0.150,-0.100
'0:00.566',-0.056,-0.151,-0.095,0.104,0.019,-0.123,0.012,-0.187,-0.203,-0.194,-0.156,-0.116
'0:00.567',-0.063,-0.159,-0.097,0.111,0.017,-0.128,0.025,-0.181,-0.200,-0.200,-0.163,-0.125
'0:00.568',-0.067,-0.176,-0.109,0.122,0.021,-0.143,0.037,-0.172,-0.203,-0.209,-0.172,-0.141
'0:00.569',-0.072,-0.191,-0.119,0.131,0.023,-0.155,0.056,-0.162,-0.206,-0.212,-0.181,-0.150
'0:00.570',-0.074,-0.196,-0.122,0.135,0.024,-0.159,0.069,-0.159,-0.209,-0.228,-0.203,-0.163
'0:00.571',-0.075,-0.200,-0.125,0.137,0.025,-0.162,0.081,-0.150,-0.219,-0.244,-0.219,-0.175
'0:00.572',-0.072,-0.200,-0.128,0.136,0.028,-0.164,0.100,-0.137,-0.219,-0.253,-0.231,-0.184
'0:00.573',-0.072,-0.200,-0.128,0.136,0.028,-0.164,0.112,-0.125,-0.225,-0.262,-0.238,-0.194
'0:00.574',-0.069,-0.204,-0.136,0.137,0.033,-0.170,0.131,-0.109,-0.219,-0.266,-0.244,-0.200
'0:00.575',-0.069,-0.203,-0.134,0.136,0.032,-0.169,0.144,-0.087,-0.219,-0.269,-0.250,-0.206
'0:00.576',-0.061,-0.203,-0.142,0.133,0.040,-0.172,0.153,-0.081,-0.228,-0.278,-0.259,-0.206
'0:00.577',-0.050,-0.200,-0.150,0.125,0.050,-0.175,0.156,-0.069,-0.231,-0.275,-0.256,-0.212
'0:00.578',-0.041,-0.186,-0.146,0.114,0.052,-0.166,0.156,-0.053,-0.216,-0.272,-0.253,-0.222
'0:00.579',-0.028,-0.175,-0.147,0.102,0.059,-0.161,0.156,-0.031,-0.194,-0.262,-0.250,-0.225
'0:00.580',-0.023,-0.162,-0.139,0.093,0.058,-0.151,0.159,-0.006,-0.162,-0.244,-0.228,-0.203
'0:00.581',-0.016,-0.141,-0.125,0.078,0.054,-0.133,0.156,0.019,-0.138,-0.212,-0.206,-0.188
'0:00.582',-0.012,-0.099,-0.086,0.056,0.037,-0.092,0.159,0.031,-0.106,-0.184,-0.178,-0.169
'0:00.583',-0.012,-0.059,-0.047,0.036,0.017,-0.053,0.163,0.044,-0.081,-0.156,-0.150,-0.144
'0:00.584',-0.011,-0.011,0.000,0.011,-0.006,-0.006,0.159,0.056,-0.050,-0.109,-0.103,-0.103
'0:00.585',-0.009,0.038,0.047,-0.014,-0.028,0.042,0.156,0.075,-0.013,-0.056,-0.063,-0.063
'0:00.586',0.000,0.091,0.091,-0.045,-0.046,0.091,0.150,0.097,0.038,0.000,-0.012,-0.016
'0:00.587',0.009,0.147,0.137,-0.078,-0.064,0.142,0.137,0.125,0.088,0.063,0.044,0.031
'0:00.588',0.025,0.202,0.177,-0.113,-0.076,0.189,0.119,0.162,0.144,0.134,0.106,0.087
'0:00.589',0.038,0.253,0.216,-0.145,-0.089,0.234,0.094,0.200,0.206,0.206,0.175,0.144
'0:00.590',0.054,0.317,0.262,-0.186,-0.104,0.289,0.062,0.231,0.272,0.284,0.250,0.216
'0:00.591',0.072,0.384,0.312,-0.228,-0.121,0.348,0.044,0.269,0.344,0.362,0.331,0.287
'0:00.592',0.087,0.453,0.366,-0.270,-0.139,0.409,0.022,0.309,0.416,0.447,0.416,0.356
'0:00.593',0.106,0.525,0.419,-0.316,-0.156,0.472,0.000,0.356,0.494,0.537,0.500,0.431
'0:00.594',0.126,0.600,0.474,-0.363,-0.174,0.537,-0.025,0.419,0.600,0.644,0.603,0.506
'0:00.595',0.150,0.675,0.525,-0.412,-0.188,0.600,-0.056,0.487,0.713,0.756,0.713,0.587
'0:00.596',0.169,0.770,0.601,-0.469,-0.216,0.686,-0.097,0.550,0.822,0.875,0.831,0.694
'0:00.597',0.194,0.869,0.675,-0.531,-0.241,0.772,-0.138,0.612,0.944,1.006,0.956,0.794
'0:00.598',0.219,0.961,0.742,-0.590,-0.262,0.852,-0.169,0.672,1.075,1.150,1.091,0.909
'0:00.599',0.237,1.056,0.819,-0.647,-0.291,0.937,-0.206,0.725,1.200,1.288,1.219,1.013
'0:00.600',0.249,1.157,0.909,-0.703,-0.330,1.033,-0.244,0.766,1.316,1.419,1.337,1.109
'0:00.601',0.253,1.250,0.997,-0.751,-0.372,1.123,-0.275,0.794,1.431,1.550,1.450,1.206
'0:00.602',0.261,1.323,1.062,-0.792,-0.401,1.193,-0.306,0.806,1.538,1.672,1.553,1.284
'0:00.603',0.269,1.381,1.112,-0.825,-0.422,1.247,-0.344,0.825,1.631,1.781,1.644,1.350
'0:00.604',0.275,1.417,1.142,-0.846,-0.434,1.279,-0.363,0.850,1.716,1.875,1.713,1.394
'0:00.605',0.275,1.447,1.172,-0.861,-0.449,1.309,-0.381,0.869,1.794,1.956,1.769,1.431
'0:00.606',0.267,1.475,1.208,-0.871,-0.471,1.341,-0.397,0.878,1.859,2.025,1.825,1.466
'0:00.607',0.263,1.500,1.237,-0.881,-0.488,1.369,-0.413,0.894,1.925,2.094,1.862,1.487
'0:00.608',0.251,1.531,1.280,-0.891,-0.514,1.406,-0.419,0.897,1.984,2.156,1.906,1.519
'0:00.609',0.237,1.556,1.319,-0.897,-0.541,1.438,-0.425,0.900,2.031,2.206,1.931,1.531
'0:00.610',0.217,1.514,1.297,-0.865,-0.540,1.405,-0.422,0.884,2.063,2.216,1.916,1.503
'0:00.611',0.200,1.453,1.253,-0.826,-0.527,1.353,-0.419,0.875,2.088,2.219,1.894,1.463
'0:00.612',0.189,1.356,1.167,-0.772,-0.489,1.261,-0.428,0.837,2.091,2.212,1.847,1.409
'0:00.613',0.181,1.263,1.081,-0.722,-0.450,1.172,-0.444,0.806,2.100,2.194,1.806,1.350
'0:00.614',0.177,1.163,0.986,-0.669,-0.404,1.074,-0.472,0.741,2.069,2.156,1.744,1.281
'0:00.615',0.172,1.063,0.891,-0.617,-0.359,0.976,-0.494,0.669,2.031,2.113,1.681,1.219
'0:00.616',0.166,0.977,0.811,-0.571,-0.323,0.894,-0.519,0.594,1.997,2.066,1.622,1.150
'0:00.617',0.159,0.900,0.741,-0.529,-0.291,0.820,-0.550,0.525,1.956,2.019,1.556,1.081
'0:00.618',0.158,0.845,0.687,-0.501,-0.265,0.766,-0.578,0.469,1.919,1.963,1.491,1.031
'0:00.619',0.156,0.787,0.631,-0.472,-0.238,0.709,-0.594,0.412,1.869,1.894,1.419,0.975
'0:00.620',0.142,0.725,0.582,-0.434,-0.220,0.654,-0.606,0.325,1.759,1.787,1.316,0.900
'0:00.621',0.128,0.653,0.525,-0.391,-0.199,0.589,-0.600,0.237,1.644,1.656,1.200,0.825
'0:00.622',0.111,0.569,0.458,-0.339,-0.174,0.513,-0.588,0.150,1.506,1.509,1.072,0.734
'0:00.623',0.094,0.475,0.381,-0.284,-0.144,0.428,-0.575,0.081,1.369,1.356,0.944,0.637
'0:00.624',0.084,0.363,0.278,-0.223,-0.097,0.320,-0.556,0.037,1.238,1.188,0.800,0.534
'0:00.625',0.075,0.259,0.184,-0.167,-0.055,0.222,-0.531,-0.006,1.094,1.006,0.650,0.431
'0:00.626',0.059,0.164,0.105,-0.112,-0.023,0.134,-0.503,-0.053,0.934,0.809,0.500,0.328
'0:00.627',0.047,0.084,0.038,-0.066,0.004,0.061,-0.475,-0.112,0.775,0.619,0.363,0.238
'0:00.628',0.027,0.011,-0.016,-0.019,0.021,-0.002,-0.453,-0.181,0.591,0.441,0.237,0.159
'0:00.629',0.009,-0.050,-0.059,0.021,0.034,-0.055,-0.431,-0.262,0.400,0.269,0.125,0.087
'0:00.630',-0.009,-0.094,-0.084,0.052,0.038,-0.089,-0.413,-0.366,0.191,0.116,0.022,0.025
'0:00.631',-0.028,-0.131,-0.103,0.080,0.038,-0.117,-0.400,-0.462,0.000,-0.019,-0.069,-0.031
'0:00.632',-0.031,-0.161,-0.130,0.096,0.049,-0.146,-0.394,-0.550,-0.144,-0.116,-0.134,-0.072
'0:00.633',-0.034,-0.184,-0.150,0.109,0.057,-0.167,-0.388,-0.600,-0.244,-0.175,-0.175,-0.106
'0:00.634',-0.032,-0.196,-0.163,0.114,0.065,-0.179,-0.378,-0.616,-0.278,-0.197,-0.187,-0.116
'0:00.635',-0.031,-0.203,-0.172,0.118,0.070,-0.187,-0.369,-0.612,-0.294,-0.206,-0.194,-0.119
'0:00.636',-0.031,-0.200,-0.169,0.116,0.069,-0.184,-0.350,-0.584,-0.300,-0.203,-0.191,-0.125
'0:00.637',-0.031,-0.194,-0.163,0.113,0.066,-0.178,-0.337,-0.550,-0.294,-0.200,-0.187,-0.125
'0:00.638',-0.030,-0.184,-0.154,0.108,0.062,-0.169,-0.313,-0.522,-0.281,-0.188,-0.181,-0.131
'0:00.639',-0.028,-0.172,-0.144,0.100,0.057,-0.158,-0.287,-0.487,-0.269,-0.181,-0.169,-0.125
'0:00.640',-0.031,-0.159,-0.128,0.096,0.048,-0.144,-0.259,-0.447,-0.253,-0.163,-0.156,-0.113
'0:00.641',-0.031,-0.147,-0.116,0.089,0.042,-0.131,-0.237,-0.412,-0.244,-0.156,-0.150,-0.106
'0:00.642',-0.031,-0.144,-0.113,0.088,0.041,-0.128,-0.209,-0.378,-0.228,-0.150,-0.144,-0.100
'0:00.643',-0.034,-0.141,-0.106,0.088,0.036,-0.124,-0.181,-0.337,-0.219,-0.144,-0.138,-0.094
'0:00.644',-0.032,-0.134,-0.102,0.084,0.034,-0.118,-0.163,-0.306,-0.206,-0.141,-0.134,-0.094
'0:00.645',-0.031,-0.131,-0.100,0.081,0.034,-0.116,-0.144,-0.275,-0.200,-0.144,-0.138,-0.094
'0:00.646',-0.031,-0.122,-0.091,0.077,0.029,-0.106,-0.125,-0.253,-0.191,-0.147,-0.134,-0.097
'0:00.647',-0.031,-0.112,-0.081,0.072,0.025,-0.097,-0.106,-0.231,-0.175,-0.144,-0.125,-0.094
'0:00.648',-0.031,-0.105,-0.074,0.068,0.021,-0.089,-0.094,-0.219,-0.159,-0.144,-0.119,-0.091
'0:00.649',-0.031,-0.094,-0.063,0.062,0.016,-0.078,-0.081,-0.200,-0.150,-0.144,-0.119,-0.094
'0:00.650',-0.030,-0.091,-0.061,0.061,0.015,-0.076,-0.069,-0.194,-0.150,-0.134,-0.116,-0.094
'0:00.651',-0.028,-0.087,-0.059,0.058,0.016,-0.074,-0.062,-0.181,-0.144,-0.131,-0.119,-0.087
'0:00.652',-0.027,-0.087,-0.061,0.057,0.017,-0.074,-0.056,-0.172,-0.138,-0.134,-0.119,-0.094
'0:00.653',-0.028,-0.084,-0.056,0.056,0.014,-0.071,-0.050,-0.156,-0.138,-0.131,-0.113,-0.087
'0:00.654',-0.030,-0.080,-0.050,0.055,0.010,-0.065,-0.047,-0.150,-0.138,-0.128,-0.109,-0.081
'0:00.655',-0.028,-0.075,-0.047,0.052,0.009,-0.061,-0.044,-0.137,-0.138,-0.125,-0.113,-0.081
'0:00.656',-0.032,-0.075,-0.043,0.054,0.005,-0.059,-0.038,-0.134,-0.134,-0.122,-0.113,-0.081
'0:00.657',-0.034,-0.072,-0.038,0.053,0.001,-0.055,-0.031,-0.137,-0.138,-0.119,-0.113,-0.075
'0:00.658',-0.032,-0.067,-0.034,0.050,0.001,-0.051,-0.031,-0.131,-0.134,-0.122,-0.113,-0.072
'0:00.659',-0.037,-0.066,-0.028,0.052,-0.005,-0.047,-0.025,-0.125,-0.138,-0.125,-0.113,-0.069
'0:00.660',-0.041,-0.064,-0.024,0.053,-0.009,-0.044,-0.019,-0.125,-0.134,-0.122,-0.106,-0.078
'0:00.661',-0.041,-0.062,-0.022,0.052,-0.009,-0.042,-0.019,-0.125,-0.144,-0.125,-0.106,-0.081
'0:00.662',-0.042,-0.061,-0.019,0.051,-0.012,-0.040,-0.012,-0.125,-0.144,-0.125,-0.103,-0.078
'0:00.663',-0.044,-0.062,-0.019,0.053,-0.013,-0.041,-0.006,-0.125,-0.144,-0.125,-0.106,-0.075
'0:00.664',-0.043,-0.061,-0.019,0.052,-0.012,-0.040,-0.006,-0.122,-0.144,-0.131,-0.109,-0.078
'0:00.665',-0.041,-0.062,-0.022,0.052,-0.009,-0.042,-0.006,-0.112,-0.144,-0.131,-0.113,-0.081
'0:00.666',-0.043,-0.061,-0.019,0.052,-0.012,-0.040,0.000,-0.116,-0.147,-0.131,-0.113,-0.084
'0:00.667',-0.037,-0.059,-0.022,0.049,-0.008,-0.041,0.000,-0.112,-0.150,-0.137,-0.113,-0.087
'0:00.668',-0.037,-0.061,-0.023,0.049,-0.008,-0.042,0.006,-0.112,-0.147,-0.131,-0.116,-0.084
'0:00.669',-0.037,-0.062,-0.025,0.050,-0.006,-0.044,0.006,-0.106,-0.144,-0.131,-0.119,-0.087
'0:00.670',-0.037,-0.066,-0.028,0.052,-0.005,-0.047,0.006,-0.106,-0.150,-0.128,-0.119,-0.087
'0:00.671',-0.037,-0.066,-0.028,0.052,-0.005,-0.047,0.006,-0.100,-0.150,-0.131,-0.119,-0.087
'0:00.672',-0.039,-0.067,-0.028,0.053,-0.006,-0.047,0.006,-0.097,-0.147,-0.122,-0.119,-0.084
'0:00.673',-0.037,-0.066,-0.028,0.052,-0.005,-0.047,0.006,-0.094,-0.144,-0.125,-0.119,-0.087
'0:00.674',-0.033,-0.067,-0.034,0.050,0.000,-0.051,0.006,-0.094,-0.147,-0.128,-0.119,-0.084
'0:00.675',-0.034,-0.066,-0.031,0.050,-0.002,-0.049,0.006,-0.094,-0.144,-0.125,-0.113,-0.081
'0:00.676',-0.036,-0.062,-0.027,0.049,-0.004,-0.045,0.006,-0.094,-0.150,-0.131,-0.116,-0.084
'0:00.677',-0.034,-0.059,-0.025,0.047,-0.005,-0.042,0.006,-0.094,-0.144,-0.125,-0.119,-0.087
'0:00.678',-0.034,-0.056,-0.022,0.046,-0.006,-0.039,0.006,-0.097,-0.144,-0.128,-0.116,-0.087
'0:00.679',-0.034,-0.056,-0.022,0.046,-0.006,-0.039,0.006,-0.094,-0.144,-0.131,-0.113,-0.087
'0:00.680',-0.036,-0.059,-0.024,0.048,-0.006,-0.042,0.006,-0.091,-0.141,-0.131,-0.113,-0.087
'0:00.681',-0.034,-0.059,-0.025,0.047,-0.005,-0.042,0.006,-0.087,-0.138,-0.131,-0.113,-0.087
'0:00.682',-0.036,-0.058,-0.022,0.048,-0.008,-0.040,0.012,-0.094,-0.131,-0.134,-0.113,-0.087
'0:00.683',-0.034,-0.053,-0.019,0.044,-0.008,-0.036,0.012,-0.094,-0.131,-0.137,-0.113,-0.087
'0:00.684',-0.034,-0.055,-0.021,0.045,-0.007,-0.038,0.019,-0.084,-0.134,-0.137,-0.116,-0.087
'0:00.685',-0.034,-0.053,-0.019,0.044,-0.008,-0.036,0.019,-0.081,-0.138,-0.137,-0.119,-0.087
'0:00.686',-0.037,-0.056,-0.019,0.047,-0.009,-0.037,0.012,-0.078,-0.134,-0.128,-0.113,-0.087
'0:00.687',-0.041,-0.059,-0.019,0.050,-0.011,-0.039,0.019,-0.069,-0.125,-0.125,-0.106,-0.081
'0:00.688',-0.037,-0.057,-0.020,0.048,-0.009,-0.039,0.016,-0.069,-0.125,-0.122,-0.109,-0.078
'0:00.689',-0.037,-0.059,-0.022,0.049,-0.008,-0.041,0.025,-0.069,-0.125,-0.119,-0.106,-0.075
'0:00.690',-0.034,-0.055,-0.021,0.045,-0.007,-0.038,0.016,-0.069,-0.122,-0.122,-0.109,-0.078
'0:00.691',-0.031,-0.053,-0.022,0.043,-0.005,-0.037,0.019,-0.069,-0.119,-0.125,-0.113,-0.081
'0:00.692',-0.033,-0.050,-0.017,0.042,-0.008,-0.034,0.019,-0.069,-0.122,-0.128,-0.113,-0.081
'0:00.693',-0.031,-0.047,-0.016,0.039,-0.008,-0.031,0.012,-0.069,-0.125,-0.125,-0.113,-0.081
'0:00.694',-0.029,-0.050,-0.021,0.040,-0.004,-0.036,0.019,-0.059,-0.119,-0.125,-0.109,-0.078
'0:00.695',-0.031,-0.050,-0.019,0.041,-0.006,-0.034,0.019,-0.056,-0.119,-0.125,-0.106,-0.075
'0:00.696',-0.032,-0.048,-0.016,0.041,-0.009,-0.032,0.022,-0.059,-0.116,-0.125,-0.106,-0.075
'0:00.697',-0.031,-0.050,-0.019,0.041,-0.006,-0.034,0.025,-0.062,-0.112,-0.125,-0.100,-0.075
'0:00.698',-0.031,-0.047,-0.016,0.039,-0.008,-0.031,0.025,-0.059,-0.109,-0.125,-0.100,-0.075
'0:00.699',-0.028,-0.044,-0.016,0.036,-0.006,-0.030,0.025,-0.062,-0.112,-0.119,-0.100,-0.075
'0:00.700',-0.029,-0.044,-0.014,0.037,-0.008,-0.029,0.025,-0.056,-0.112,-0.119,-0.103,-0.075
'0:00.701',-0.028,-0.044,-0.016,0.036,-0.006,-0.030,0.025,-0.056,-0.112,-0.119,-0.106,-0.081
'0:00.702',-0.028,-0.048,-0.020,0.038,-0.004,-0.034,0.028,-0.053,-0.116,-0.119,-0.103,-0.078
'0:00.703',-0.028,-0.050,-0.022,0.039,-0.003,-0.036,0.031,-0.050,-0.112,-0.119,-0.100,-0.075
'0:00.704',-0.029,-0.053,-0.024,0.041,-0.003,-0.039,0.031,-0.041,-0.109,-0.119,-0.100,-0.075
'0:00.705',-0.031,-0.050,-0.019,0.041,-0.006,-0.034,0.031,-0.037,-0.100,-0.119,-0.100,-0.075
'0:00.706',-0.028,-0.051,-0.023,0.040,-0.003,-0.037,0.031,-0.041,-0.100,-0.112,-0.097,-0.072
'0:00.707',-0.028,-0.053,-0.025,0.041,-0.002,-0.039,0.031,-0.037,-0.100,-0.112,-0.100,-0.069
'0:00.708',-0.028,-0.049,-0.021,0.039,-0.004,-0.035,0.031,-0.037,-0.100,-0.106,-0.100,-0.069
'0:00.709',-0.028,-0.047,-0.019,0.038,-0.005,-0.033,0.031,-0.037,-0.094,-0.100,-0.100,-0.069
'0:00.710',-0.028,-0.051,-0.023,0.040,-0.003,-0.037,0.031,-0.031,-0.097,-0.100,-0.094,-0.072
'0:00.711',-0.028,-0.047,-0.019,0.038,-0.005,-0.033,0.031,-0.031,-0.100,-0.100,-0.094,-0.069
'0:00.712',-0.028,-0.044,-0.016,0.036,-0.006,-0.030,0.031,-0.034,-0.097,-0.097,-0.094,-0.069
'0:00.713',-0.028,-0.044,-0.016,0.036,-0.006,-0.030,0.031,-0.031,-0.094,-0.100,-0.094,-0.069
'0:00.714',-0.026,-0.042,-0.016,0.034,-0.006,-0.029,0.031,-0.028,-0.094,-0.097,-0.094,-0.069
'0:00.715',-0.028,-0.041,-0.013,0.034,-0.008,-0.027,0.031,-0.025,-0.088,-0.094,-0.094,-0.069
'0:00.716',-0.027,-0.042,-0.016,0.035,-0.006,-0.029,0.031,-0.025,-0.088,-0.097,-0.094,-0.069
'0:00.717',-0.025,-0.037,-0.013,0.031,-0.006,-0.025,0.031,-0.025,-0.088,-0.094,-0.094,-0.069
'0:00.718',-0.021,-0.039,-0.018,0.030,-0.001,-0.029,0.031,-0.019,-0.091,-0.103,-0.091,-0.069
'0:00.719',-0.019,-0.041,-0.022,0.030,0.001,-0.031,0.031,-0.019,-0.088,-0.100,-0.088,-0.069
'0:00.720',-0.019,-0.045,-0.026,0.032,0.004,-0.036,0.031,-0.009,-0.084,-0.100,-0.081,-0.063
'0:00.721',-0.019,-0.044,-0.025,0.031,0.003,-0.034,0.031,-0.006,-0.081,-0.094,-0.081,-0.063
'0:00.722',-0.020,-0.045,-0.025,0.033,0.002,-0.035,0.031,-0.006,-0.078,-0.103,-0.081,-0.063
'0:00.723',-0.019,-0.044,-0.025,0.031,0.003,-0.034,0.031,-0.006,-0.069,-0.100,-0.081,-0.063
'0:00.724',-0.019,-0.044,-0.025,0.031,0.003,-0.034,0.028,0.000,-0.072,-0.097,-0.084,-0.059
'0:00.725',-0.022,-0.044,-0.022,0.033,0.000,-0.033,0.025,0.000,-0.075,-0.094,-0.081,-0.056
'0:00.726',-0.021,-0.044,-0.023,0.033,0.001,-0.034,0.025,0.006,-0.072,-0.091,-0.078,-0.059
'0:00.727',-0.019,-0.044,-0.025,0.031,0.003,-0.034,0.025,0.006,-0.075,-0.087,-0.075,-0.056
'0:00.728',-0.020,-0.039,-0.019,0.030,-0.001,-0.029,0.025,0.003,-0.072,-0.081,-0.078,-0.056
'0:00.729',-0.019,-0.037,-0.019,0.028,0.000,-0.028,0.025,0.006,-0.069,-0.081,-0.081,-0.063
'0:00.730',-0.020,-0.039,-0.019,0.029,-0.001,-0.029,0.025,0.006,-0.059,-0.081,-0.075,-0.056
'0:00.731',-0.019,-0.041,-0.022,0.030,0.001,-0.031,0.025,0.012,-0.056,-0.075,-0.075,-0.056
'0:00.732',-0.016,-0.039,-0.024,0.027,0.004,-0.032,0.025,0.012,-0.056,-0.075,-0.075,-0.056
'0:00.733',-0.016,-0.037,-0.022,0.027,0.003,-0.030,0.025,0.012,-0.056,-0.075,-0.075,-0.056
'0:00.734',-0.014,-0.034,-0.021,0.024,0.003,-0.027,0.025,0.019,-0.053,-0.078,-0.072,-0.053
'0:00.735',-0.016,-0.034,-0.019,0.025,0.001,-0.027,0.025,0.019,-0.056,-0.081,-0.069,-0.050
'0:00.736',-0.014,-0.033,-0.019,0.024,0.002,-0.026,0.028,0.022,-0.050,-0.075,-0.069,-0.056
'0:00.737',-0.012,-0.031,-0.019,0.022,0.003,-0.025,0.031,0.019,-0.050,-0.075,-0.069,-0.056
'0:00.738',-0.014,-0.028,-0.014,0.021,0.000,-0.021,0.028,0.028,-0.053,-0.075,-0.063,-0.053
'0:00.739',-0.016,-0.028,-0.013,0.022,-0.002,-0.021,0.025,0.031,-0.050,-0.069,-0.056,-0.050
'0:00.740',-0.012,-0.031,-0.019,0.022,0.003,-0.025,0.031,0.034,-0.047,-0.066,-0.059,-0.050
'0:00.741',-0.012,-0.031,-0.019,0.022,0.003,-0.025,0.025,0.044,-0.044,-0.063,-0.063,-0.050
'0:00.742',-0.016,-0.037,-0.022,0.027,0.003,-0.030,0.028,0.044,-0.034,-0.063,-0.053,-0.047
'0:00.743',-0.019,-0.041,-0.022,0.030,0.001,-0.031,0.031,0.050,-0.031,-0.056,-0.050,-0.044
'0:00.744',-0.016,-0.039,-0.024,0.027,0.004,-0.032,0.031,0.047,-0.025,-0.056,-0.053,-0.047
'0:00.745',-0.016,-0.034,-0.019,0.025,0.001,-0.027,0.031,0.050,-0.025,-0.056,-0.056,-0.044
'0:00.746',-0.009,-0.033,-0.024,0.021,0.007,-0.029,0.034,0.050,-0.028,-0.063,-0.050,-0.044
'0:00.747',-0.006,-0.028,-0.022,0.018,0.007,-0.025,0.037,0.056,-0.025,-0.063,-0.050,-0.044
'0:00.748',-0.005,-0.031,-0.026,0.018,0.011,-0.029,0.037,0.056,-0.025,-0.059,-0.047,-0.047
'0:00.749',-0.003,-0.028,-0.025,0.016,0.011,-0.027,0.037,0.062,-0.025,-0.056,-0.044,-0.050
'0:00.750',-0.003,-0.028,-0.025,0.016,0.011,-0.027,0.037,0.062,-0.016,-0.050,-0.041,-0.041
'0:00.751',-0.003,-0.028,-0.025,0.016,0.011,-0.027,0.037,0.069,-0.013,-0.050,-0.044,-0.038
'0:00.752',-0.004,-0.028,-0.024,0.016,0.009,-0.026,0.037,0.069,-0.006,-0.044,-0.044,-0.038
'0:00.753',-0.003,-0.028,-0.025,0.016,0.011,-0.027,0.037,0.075,-0.006,-0.044,-0.044,-0.038
'0:00.754',-0.002,-0.024,-0.022,0.013,0.010,-0.023,0.037,0.081,0.000,-0.038,-0.038,-0.031
'0:00.755',0.003,-0.019,-0.022,0.008,0.012,-0.021,0.037,0.081,0.000,-0.038,-0.038,-0.038
'0:00.756',0.002,-0.020,-0.022,0.009,0.012,-0.021,0.034,0.084,-0.006,-0.038,-0.034,-0.031
'0:00.757',0.000,-0.022,-0.022,0.011,0.011,-0.022,0.031,0.094,-0.006,-0.038,-0.025,-0.031
'0:00.758',0.002,-0.020,-0.022,0.009,0.012,-0.021,0.041,0.103,0.003,-0.028,-0.028,-0.025
'0:00.759',0.000,-0.019,-0.019,0.009,0.009,-0.019,0.037,0.112,0.006,-0.025,-0.025,-0.025
'0:00.760',0.003,-0.019,-0.022,0.008,0.012,-0.021,0.037,0.109,0.013,-0.022,-0.025,-0.025
'0:00.761',0.000,-0.016,-0.016,0.008,0.007,-0.016,0.037,0.112,0.019,-0.019,-0.019,-0.025
'0:00.762',0.004,-0.016,-0.020,0.006,0.012,-0.018,0.037,0.116,0.019,-0.019,-0.019,-0.019
'0:00.763',0.006,-0.012,-0.019,0.003,0.012,-0.016,0.037,0.112,0.025,-0.019,-0.019,-0.025
'0:00.764',0.009,-0.006,-0.016,-0.001,0.012,-0.011,0.034,0.119,0.025,-0.012,-0.016,-0.019
'0:00.765',0.009,0.000,-0.009,-0.004,0.009,-0.005,0.031,0.125,0.031,-0.012,-0.019,-0.019
'0:00.766',0.009,-0.001,-0.011,-0.004,0.010,-0.006,0.031,0.131,0.038,-0.012,-0.009,-0.019
'0:00.767',0.009,-0.003,-0.013,-0.003,0.011,-0.008,0.025,0.131,0.038,-0.006,-0.006,-0.013
'0:00.768',0.009,-0.002,-0.011,-0.004,0.010,-0.007,0.028,0.137,0.041,0.000,0.000,-0.016
'0:00.769',0.009,0.000,-0.009,-0.004,0.009,-0.005,0.025,0.144,0.044,0.000,0.000,-0.013
'0:00.770',0.009,-0.001,-0.011,-0.004,0.010,-0.006,0.031,0.150,0.047,0.006,0.006,-0.013
'0:00.771',0.009,0.000,-0.009,-0.004,0.009,-0.005,0.031,0.156,0.056,0.006,0.006,-0.006
'0:00.772',0.016,0.003,-0.013,-0.009,0.014,-0.005,0.031,0.162,0.059,0.013,0.006,-0.003
'0:00.773',0.016,0.003,-0.013,-0.009,0.014,-0.005,0.031,0.169,0.062,0.019,0.012,0.000
'0:00.774',0.019,0.006,-0.013,-0.013,0.016,-0.003,0.037,0.169,0.062,0.019,0.019,0.000
'0:00.775',0.019,0.006,-0.013,-0.013,0.016,-0.003,0.031,0.181,0.069,0.025,0.019,0.006
'0:00.776',0.024,0.009,-0.014,-0.016,0.019,-0.002,0.037,0.191,0.078,0.025,0.025,0.009
'0:00.777',0.025,0.016,-0.009,-0.020,0.017,0.003,0.037,0.200,0.088,0.025,0.031,0.019
'0:00.778',0.025,0.017,-0.008,-0.021,0.016,0.004,0.031,0.197,0.084,0.025,0.034,0.016
'0:00.779',0.028,0.022,-0.006,-0.025,0.017,0.008,0.031,0.200,0.088,0.031,0.031,0.013
'0:00.780',0.028,0.024,-0.004,-0.026,0.016,0.009,0.031,0.209,0.097,0.044,0.044,0.019
'0:00.781',0.028,0.025,-0.003,-0.026,0.016,0.011,0.031,0.212,0.106,0.050,0.050,0.019
'0:00.782',0.027,0.025,-0.002,-0.026,0.014,0.011,0.031,0.222,0.109,0.053,0.053,0.022
'0:00.783',0.028,0.028,0.000,-0.028,0.014,0.014,0.031,0.231,0.113,0.056,0.056,0.019
'0:00.784',0.028,0.034,0.006,-0.031,0.011,0.020,0.034,0.241,0.119,0.066,0.059,0.019
'0:00.785',0.031,0.038,0.006,-0.034,0.012,0.022,0.031,0.250,0.125,0.069,0.069,0.025
'0:00.786',0.034,0.038,0.003,-0.036,0.016,0.020,0.028,0.256,0.134,0.072,0.069,0.031
'0:00.787',0.041,0.038,-0.003,-0.039,0.022,0.017,0.025,0.262,0.144,0.075,0.075,0.044
'0:00.788',0.041,0.039,-0.002,-0.039,0.021,0.018,0.025,0.269,0.147,0.081,0.078,0.041
'0:00.789',0.047,0.047,0.000,-0.047,0.023,0.023,0.025,0.275,0.150,0.087,0.081,0.044
'0:00.790',0.044,0.050,0.006,-0.047,0.019,0.028,0.025,0.287,0.156,0.097,0.088,0.050
'0:00.791',0.044,0.056,0.012,-0.050,0.016,0.034,0.025,0.294,0.163,0.100,0.094,0.050
'0:00.792',0.048,0.059,0.011,-0.054,0.018,0.035,0.025,0.300,0.175,0.103,0.103,0.056
'0:00.793',0.047,0.059,0.012,-0.053,0.017,0.036,0.019,0.312,0.181,0.106,0.106,0.056
'0:00.794',0.047,0.059,0.012,-0.053,0.017,0.036,0.019,0.322,0.191,0.112,0.112,0.066
'0:00.795',0.047,0.063,0.016,-0.054,0.016,0.039,0.019,0.337,0.200,0.119,0.119,0.075
'0:00.796',0.053,0.067,0.014,-0.060,0.019,0.040,0.016,0.337,0.203,0.125,0.122,0.072
'0:00.797',0.059,0.072,0.012,-0.066,0.023,0.042,0.012,0.344,0.213,0.131,0.125,0.069
'0:00.798',0.061,0.078,0.017,-0.069,0.021,0.048,0.009,0.353,0.219,0.138,0.131,0.075
'0:00.799',0.066,0.081,0.016,-0.073,0.025,0.048,0.006,0.362,0.231,0.144,0.137,0.081
'0:00.800',0.064,0.086,0.021,-0.075,0.021,0.053,0.006,0.375,0.238,0.156,0.144,0.081
'0:00.801',0.066,0.091,0.025,-0.078,0.020,0.058,0.006,0.381,0.244,0.163,0.150,0.087
'0:00.802',0.067,0.094,0.026,-0.081,0.021,0.060,0.009,0.394,0.253,0.169,0.153,0.091
'0:00.803',0.069,0.097,0.028,-0.082,0.020,0.063,0.012,0.406,0.256,0.175,0.156,0.094
'0:00.804',0.073,0.099,0.026,-0.086,0.024,0.062,0.006,0.416,0.272,0.181,0.166,0.103
'0:00.805',0.075,0.097,0.022,-0.086,0.026,0.059,0.006,0.431,0.281,0.188,0.175,0.106
'0:00.806',0.078,0.104,0.026,-0.091,0.026,0.065,0.006,0.437,0.291,0.194,0.187,0.113
'0:00.807',0.081,0.109,0.028,-0.095,0.026,0.069,0.006,0.450,0.306,0.200,0.187,0.119
'0:00.808',0.083,0.114,0.031,-0.098,0.026,0.072,0.000,0.453,0.309,0.203,0.194,0.119
'0:00.809',0.081,0.119,0.038,-0.100,0.022,0.078,0.000,0.456,0.313,0.212,0.206,0.125
'0:00.810',0.087,0.123,0.036,-0.105,0.026,0.079,0.000,0.469,0.328,0.228,0.212,0.131
'0:00.811',0.091,0.131,0.041,-0.111,0.025,0.086,0.000,0.481,0.337,0.237,0.219,0.138
'0:00.812',0.095,0.136,0.041,-0.116,0.027,0.089,0.003,0.494,0.347,0.244,0.222,0.144
'0:00.813',0.097,0.138,0.041,-0.117,0.028,0.089,0.006,0.500,0.356,0.250,0.231,0.150
'0:00.814',0.099,0.141,0.042,-0.119,0.028,0.091,0.000,0.516,0.363,0.256,0.241,0.150
'0:00.815',0.100,0.144,0.044,-0.122,0.028,0.094,0.000,0.525,0.375,0.269,0.244,0.156
'0:00.816',0.109,0.151,0.042,-0.130,0.034,0.096,0.003,0.534,0.381,0.275,0.250,0.156
'0:00.817',0.116,0.159,0.044,-0.137,0.036,0.101,0.000,0.537,0.394,0.281,0.256,0.162
'0:00.818',0.114,0.166,0.051,-0.140,0.031,0.108,-0.003,0.553,0.400,0.288,0.269,0.169
'0:00.819',0.116,0.169,0.053,-0.142,0.031,0.111,-0.006,0.562,0.406,0.294,0.275,0.169
'0:00.820',0.114,0.169,0.054,-0.141,0.030,0.111,-0.006,0.578,0.419,0.300,0.284,0.184
'0:00.821',0.113,0.169,0.056,-0.141,0.028,0.113,-0.006,0.587,0.431,0.313,0.294,0.187
'0:00.822',0.116,0.176,0.061,-0.146,0.027,0.118,-0.006,0.597,0.438,0.313,0.297,0.191
'0:00.823',0.119,0.181,0.062,-0.150,0.028,0.122,-0.006,0.600,0.450,0.319,0.300,0.194
'0:00.824',0.126,0.188,0.061,-0.157,0.032,0.124,-0.006,0.603,0.456,0.331,0.309,0.200
'0:00.825',0.134,0.194,0.059,-0.164,0.038,0.126,-0.006,0.612,0.462,0.338,0.312,0.200
'0:00.826',0.133,0.200,0.067,-0.166,0.033,0.133,-0.012,0.625,0.475,0.347,0.316,0.206
'0:00.827',0.134,0.203,0.069,-0.169,0.032,0.136,-0.012,0.637,0.481,0.356,0.325,0.206
'0:00.828',0.133,0.208,0.074,-0.170,0.029,0.141,-0.012,0.641,0.494,0.362,0.334,0.216
'0:00.829',0.134,0.213,0.078,-0.173,0.028,0.145,-0.012,0.644,0.506,0.369,0.344,0.225
'0:00.830',0.138,0.220,0.082,-0.179,0.027,0.151,-0.016,0.650,0.513,0.375,0.347,0.225
'0:00.831',0.138,0.225,0.087,-0.181,0.025,0.156,-0.019,0.656,0.513,0.375,0.350,0.231
'0:00.832',0.138,0.230,0.093,-0.184,0.022,0.161,-0.016,0.669,0.516,0.381,0.356,0.231
'0:00.833',0.141,0.231,0.091,-0.186,0.025,0.161,-0.012,0.675,0.525,0.387,0.356,0.238
'0:00.834',0.142,0.234,0.093,-0.188,0.024,0.163,-0.016,0.684,0.537,0.397,0.366,0.241
'0:00.835',0.141,0.238,0.097,-0.189,0.022,0.167,-0.012,0.694,0.550,0.406,0.375,0.250
'0:00.836',0.144,0.245,0.101,-0.194,0.021,0.173,-0.012,0.694,0.547,0.406,0.375,0.247
'0:00.837',0.144,0.250,0.106,-0.197,0.019,0.178,-0.012,0.700,0.550,0.413,0.381,0.250
'0:00.838',0.148,0.249,0.101,-0.198,0.024,0.174,-0.016,0.709,0.556,0.422,0.387,0.256
'0:00.839',0.153,0.247,0.094,-0.200,0.029,0.170,-0.025,0.719,0.563,0.431,0.394,0.262
'0:00.840',0.151,0.250,0.099,-0.201,0.026,0.174,-0.022,0.716,0.563,0.428,0.397,0.259
'0:00.841',0.156,0.253,0.097,-0.204,0.029,0.175,-0.025,0.719,0.569,0.431,0.394,0.256
'0:00.842',0.161,0.259,0.099,-0.210,0.031,0.179,-0.028,0.725,0.578,0.428,0.397,0.266
'0:00.843',0.159,0.263,0.103,-0.211,0.028,0.183,-0.025,0.725,0.588,0.431,0.400,0.269
'0:00.844',0.161,0.266,0.104,-0.213,0.028,0.185,-0.025,0.734,0.591,0.431,0.406,0.269
'0:00.845',0.159,0.269,0.109,-0.214,0.025,0.189,-0.025,0.744,0.594,0.438,0.412,0.275
'0:00.846',0.159,0.269,0.109,-0.214,0.025,0.189,-0.025,0.747,0.600,0.447,0.422,0.275
'0:00.847',0.159,0.269,0.109,-0.214,0.025,0.189,-0.025,0.750,0.606,0.450,0.425,0.281
'0:00.848',0.156,0.272,0.116,-0.214,0.020,0.194,-0.025,0.750,0.603,0.450,0.422,0.281
'0:00.849',0.159,0.278,0.119,-0.219,0.020,0.198,-0.031,0.750,0.606,0.450,0.419,0.281
'0:00.850',0.164,0.281,0.117,-0.222,0.023,0.199,-0.028,0.753,0.606,0.456,0.425,0.281
'0:00.851',0.169,0.288,0.119,-0.228,0.025,0.203,-0.031,0.750,0.606,0.456,0.425,0.281
'0:00.852',0.166,0.284,0.119,-0.225,0.023,0.201,-0.031,0.753,0.609,0.463,0.428,0.287
'0:00.853',0.166,0.288,0.122,-0.226,0.022,0.204,-0.031,0.750,0.619,0.463,0.431,0.287
'0:00.854',0.164,0.288,0.123,-0.226,0.021,0.205,-0.028,0.750,0.622,0.463,0.438,0.287
'0:00.855',0.162,0.288,0.125,-0.225,0.019,0.206,-0.025,0.750,0.619,0.463,0.438,0.287
'0:00.856',0.164,0.291,0.127,-0.227,0.018,0.209,-0.025,0.747,0.622,0.466,0.434,0.294
'0:00.857',0.162,0.294,0.131,-0.228,0.016,0.213,-0.025,0.750,0.625,0.463,0.431,0.294
'0:00.858',0.164,0.292,0.128,-0.227,0.017,0.210,-0.025,0.744,0.619,0.463,0.438,0.297
'0:00.859',0.162,0.294,0.131,-0.228,0.016,0.213,-0.025,0.737,0.612,0.456,0.438,0.294
'0:00.860',0.164,0.295,0.131,-0.229,0.016,0.213,-0.028,0.725,0.606,0.459,0.431,0.287
'0:00.861',0.162,0.297,0.134,-0.229,0.014,0.216,-0.025,0.719,0.600,0.456,0.431,0.287
'0:00.862',0.162,0.300,0.137,-0.231,0.012,0.219,-0.025,0.709,0.594,0.453,0.428,0.287
'0:00.863',0.159,0.300,0.141,-0.229,0.009,0.220,-0.025,0.700,0.594,0.456,0.425,0.287
'0:00.864',0.155,0.299,0.144,-0.227,0.006,0.221,-0.028,0.697,0.588,0.453,0.425,0.284
'0:00.865',0.153,0.297,0.144,-0.225,0.004,0.220,-0.031,0.694,0.581,0.450,0.419,0.287
'0:00.866',0.149,0.295,0.146,-0.222,0.001,0.221,-0.025,0.681,0.566,0.438,0.409,0.281
'0:00.867',0.144,0.294,0.150,-0.219,-0.003,0.222,-0.025,0.675,0.556,0.438,0.406,0.275
'0:00.868',0.142,0.291,0.149,-0.216,-0.004,0.219,-0.025,0.659,0.550,0.425,0.406,0.278
'0:00.869',0.138,0.288,0.150,-0.212,-0.006,0.219,-0.025,0.644,0.537,0.419,0.394,0.275
'0:00.870',0.136,0.283,0.148,-0.209,-0.006,0.215,-0.016,0.625,0.528,0.406,0.387,0.269
'0:00.871',0.138,0.281,0.144,-0.209,-0.003,0.213,-0.012,0.612,0.513,0.394,0.375,0.262
'0:00.872',0.133,0.279,0.147,-0.206,-0.008,0.213,-0.016,0.600,0.500,0.384,0.369,0.253
'0:00.873',0.131,0.278,0.147,-0.204,-0.008,0.213,-0.012,0.581,0.481,0.369,0.356,0.244
'0:00.874',0.125,0.269,0.144,-0.197,-0.009,0.206,-0.009,0.566,0.466,0.359,0.344,0.241
'0:00.875',0.119,0.256,0.137,-0.187,-0.009,0.197,-0.006,0.556,0.450,0.344,0.337,0.238
'0:00.876',0.113,0.250,0.137,-0.181,-0.013,0.194,-0.009,0.534,0.434,0.338,0.325,0.231
'0:00.877',0.106,0.244,0.137,-0.175,-0.016,0.191,-0.006,0.519,0.419,0.325,0.312,0.225
'0:00.878',0.103,0.238,0.134,-0.170,-0.016,0.186,0.000,0.500,0.406,0.316,0.300,0.212
'0:00.879',0.100,0.231,0.131,-0.166,-0.016,0.181,0.000,0.481,0.381,0.300,0.287,0.206
'0:00.880',0.094,0.225,0.131,-0.159,-0.019,0.178,0.000,0.462,0.369,0.288,0.281,0.194
'0:00.881',0.087,0.219,0.131,-0.153,-0.022,0.175,0.000,0.444,0.350,0.269,0.269,0.187
'0:00.882',0.081,0.211,0.129,-0.146,-0.024,0.170,0.003,0.425,0.331,0.256,0.259,0.184
'0:00.883',0.078,0.206,0.128,-0.142,-0.025,0.167,0.006,0.406,0.319,0.244,0.244,0.175
'0:00.884',0.075,0.198,0.123,-0.136,-0.024,0.161,0.012,0.387,0.300,0.231,0.231,0.166
'0:00.885',0.072,0.191,0.119,-0.131,-0.024,0.154,0.012,0.369,0.281,0.219,0.219,0.156
'0:00.886',0.075,0.183,0.108,-0.129,-0.017,0.146,0.012,0.347,0.259,0.203,0.200,0.141
'0:00.887',0.075,0.175,0.100,-0.125,-0.013,0.138,0.012,0.325,0.238,0.181,0.181,0.131
'0:00.888',0.071,0.164,0.094,-0.117,-0.012,0.129,0.016,0.309,0.222,0.172,0.172,0.131
'0:00.889',0.066,0.150,0.084,-0.107,-0.009,0.117,0.012,0.294,0.213,0.163,0.163,0.125
'0:00.890',0.058,0.139,0.081,-0.099,-0.012,0.110,0.016,0.278,0.194,0.153,0.159,0.119
'0:00.891',0.053,0.131,0.078,-0.092,-0.013,0.104,0.019,0.256,0.181,0.144,0.150,0.113
'0:00.892',0.050,0.131,0.081,-0.091,-0.016,0.106,0.019,0.234,0.163,0.128,0.137,0.097
'0:00.893',0.050,0.128,0.078,-0.089,-0.014,0.103,0.019,0.219,0.150,0.112,0.125,0.087
'0:00.894',0.044,0.119,0.075,-0.081,-0.016,0.097,0.019,0.206,0.134,0.091,0.109,0.078
'0:00.895',0.034,0.109,0.075,-0.072,-0.021,0.092,0.025,0.194,0.125,0.081,0.100,0.075
'0:00.896',0.030,0.106,0.076,-0.068,-0.023,0.091,0.025,0.181,0.106,0.072,0.088,0.062
'0:00.897',0.028,0.103,0.075,-0.066,-0.024,0.089,0.025,0.162,0.094,0.056,0.075,0.050
'0:00.898',0.026,0.094,0.067,-0.060,-0.021,0.081,0.025,0.153,0.069,0.047,0.062,0.047
'0:00.899',0.025,0.081,0.056,-0.053,-0.016,0.069,0.025,0.137,0.050,0.038,0.050,0.037
'0:00.900',0.019,0.076,0.057,-0.047,-0.019,0.067,0.022,0.119,0.041,0.019,0.044,0.028
'0:00.901',0.016,0.072,0.056,-0.044,-0.021,0.064,0.025,0.100,0.025,0.006,0.037,0.019
'0:00.902',0.016,0.063,0.047,-0.039,-0.016,0.054,0.016,0.087,0.013,0.000,0.025,0.016
'0:00.903',0.009,0.053,0.044,-0.031,-0.018,0.048,0.019,0.075,0.006,-0.012,0.019,0.019
'0:00.904',0.009,0.048,0.039,-0.029,-0.015,0.043,0.022,0.062,-0.006,-0.025,0.012,0.006
'0:00.905',0.006,0.044,0.038,-0.025,-0.016,0.041,0.019,0.050,-0.019,-0.031,0.000,0.000
'0:00.906',0.006,0.033,0.027,-0.019,-0.011,0.030,0.019,0.037,-0.034,-0.044,-0.009,-0.013
'0:00.907',0.003,0.028,0.025,-0.016,-0.011,0.026,0.019,0.025,-0.050,-0.050,-0.019,-0.019
'0:00.908',0.003,0.021,0.017,-0.012,-0.008,0.019,0.022,0.019,-0.059,-0.056,-0.028,-0.022
'0:00.909',0.003,0.012,0.009,-0.007,-0.003,0.011,0.025,0.006,-0.069,-0.069,-0.025,-0.025
'0:00.910',0.000,0.011,0.011,-0.005,-0.006,0.011,0.025,-0.006,-0.081,-0.075,-0.041,-0.031
'0:00.911',0.000,0.006,0.006,-0.003,-0.003,0.006,0.025,-0.012,-0.088,-0.081,-0.044,-0.031
'0:00.912',-0.004,0.000,0.004,0.003,-0.004,0.002,0.025,-0.028,-0.100,-0.087,-0.050,-0.038
'0:00.913',-0.012,-0.009,0.003,0.011,-0.008,-0.003,0.031,-0.037,-0.106,-0.094,-0.056,-0.044
'0:00.914',-0.012,-0.012,0.000,0.013,-0.006,-0.006,0.028,-0.044,-0.109,-0.100,-0.059,-0.044
'0:00.915',-0.016,-0.019,-0.003,0.018,-0.006,-0.011,0.031,-0.050,-0.119,-0.106,-0.063,-0.050
'0:00.916',-0.016,-0.021,-0.005,0.018,-0.006,-0.013,0.031,-0.062,-0.131,-0.112,-0.075,-0.063
'0:00.917',-0.016,-0.022,-0.006,0.019,-0.005,-0.014,0.031,-0.075,-0.144,-0.119,-0.088,-0.069
'0:00.918',-0.014,-0.027,-0.013,0.021,-0.001,-0.020,0.031,-0.078,-0.141,-0.125,-0.088,-0.063
'0:00.919',-0.016,-0.028,-0.013,0.022,-0.002,-0.021,0.031,-0.087,-0.144,-0.131,-0.094,-0.063
'0:00.920',-0.019,-0.033,-0.014,0.026,-0.003,-0.023,0.028,-0.087,-0.159,-0.141,-0.100,-0.069
'0:00.921',-0.016,-0.034,-0.019,0.025,0.001,-0.027,0.025,-0.094,-0.162,-0.144,-0.100,-0.069
'0:00.922',-0.019,-0.039,-0.020,0.029,0.001,-0.029,0.025,-0.106,-0.169,-0.153,-0.106,-0.078
'0:00.923',-0.022,-0.044,-0.022,0.033,0.000,-0.033,0.025,-0.106,-0.169,-0.156,-0.106,-0.081
'0:00.924',-0.022,-0.047,-0.025,0.034,0.001,-0.036,0.025,-0.112,-0.178,-0.156,-0.103,-0.084
'0:00.925',-0.025,-0.050,-0.025,0.038,0.000,-0.037,0.025,-0.112,-0.187,-0.163,-0.106,-0.087
'0:00.926',-0.025,-0.051,-0.026,0.038,0.001,-0.039,0.025,-0.125,-0.187,-0.166,-0.109,-0.084
'0:00.927',-0.025,-0.056,-0.031,0.041,0.003,-0.044,0.025,-0.131,-0.194,-0.175,-0.119,-0.087
'0:00.928',-0.026,-0.059,-0.033,0.043,0.003,-0.046,0.025,-0.134,-0.191,-0.172,-0.122,-0.087
'0:00.929',-0.031,-0.062,-0.031,0.047,0.000,-0.047,0.025,-0.137,-0.194,-0.175,-0.125,-0.087
'0:00.930',-0.029,-0.064,-0.034,0.047,0.002,-0.049,0.025,-0.141,-0.197,-0.172,-0.119,-0.087
'0:00.931',-0.031,-0.066,-0.034,0.049,0.001,-0.050,0.019,-0.144,-0.206,-0.175,-0.119,-0.094
'0:00.932',-0.030,-0.069,-0.039,0.049,0.004,-0.054,0.022,-0.141,-0.209,-0.178,-0.125,-0.097
'0:00.933',-0.031,-0.069,-0.038,0.050,0.003,-0.053,0.019,-0.144,-0.213,-0.181,-0.131,-0.100
'0:00.934',-0.031,-0.067,-0.036,0.049,0.002,-0.052,0.016,-0.147,-0.219,-0.178,-0.131,-0.100
'0:00.935',-0.031,-0.069,-0.038,0.050,0.003,-0.053,0.012,-0.150,-0.219,-0.175,-0.131,-0.100
'0:00.936',-0.031,-0.069,-0.038,0.050,0.003,-0.053,0.016,-0.156,-0.216,-0.181,-0.134,-0.103
'0:00.937',-0.031,-0.069,-0.038,0.050,0.003,-0.053,0.019,-0.156,-0.219,-0.181,-0.131,-0.106
'0:00.938',-0.034,-0.073,-0.039,0.054,0.002,-0.056,0.019,-0.162,-0.222,-0.181,-0.134,-0.103
'0:00.939',-0.034,-0.075,-0.041,0.055,0.003,-0.058,0.019,-0.162,-0.225,-0.181,-0.138,-0.106
'0:00.940',-0.034,-0.078,-0.044,0.056,0.004,-0.061,0.022,-0.162,-0.225,-0.184,-0.134,-0.109
'0:00.941',-0.031,-0.081,-0.050,0.056,0.009,-0.066,0.019,-0.162,-0.225,-0.188,-0.138,-0.106
'0:00.942',-0.033,-0.078,-0.045,0.056,0.006,-0.062,0.016,-0.162,-0.234,-0.188,-0.141,-0.113
'0:00.943',-0.028,-0.075,-0.047,0.052,0.009,-0.061,0.019,-0.169,-0.237,-0.194,-0.138,-0.113
'0:00.944',-0.032,-0.075,-0.043,0.054,0.005,-0.059,0.019,-0.162,-0.231,-0.191,-0.144,-0.109
'0:00.945',-0.031,-0.075,-0.044,0.053,0.006,-0.059,0.019,-0.169,-0.237,-0.194,-0.144,-0.106
'0:00.946',-0.036,-0.079,-0.044,0.057,0.004,-0.062,0.019,-0.162,-0.231,-0.194,-0.141,-0.109
'0:00.947',-0.037,-0.084,-0.047,0.061,0.004,-0.066,0.019,-0.162,-0.231,-0.194,-0.144,-0.113
'0:00.948',-0.037,-0.086,-0.048,0.062,0.005,-0.067,0.022,-0.162,-0.231,-0.194,-0.144,-0.113
'0:00.949',-0.037,-0.084,-0.047,0.061,0.004,-0.066,0.019,-0.162,-0.231,-0.194,-0.144,-0.113
'0:00.950',-0.030,-0.084,-0.054,0.057,0.012,-0.069,0.019,-0.162,-0.231,-0.194,-0.147,-0.106
'0:00.951',-0.028,-0.084,-0.056,0.056,0.014,-0.071,0.019,-0.162,-0.231,-0.194,-0.150,-0.106
'0:00.952',-0.028,-0.081,-0.053,0.055,0.012,-0.067,0.019,-0.162,-0.231,-0.197,-0.147,-0.116
'0:00.953',-0.025,-0.081,-0.056,0.053,0.016,-0.069,0.019,-0.162,-0.231,-0.194,-0.144,-0.113
'0:00.954',-0.028,-0.082,-0.054,0.056,0.013,-0.069,0.016,-0.162,-0.231,-0.191,-0.144,-0.116
'0:00.955',-0.028,-0.084,-0.056,0.056,0.014,-0.071,0.012,-0.162,-0.231,-0.188,-0.144,-0.113
'0:00.956',-0.029,-0.084,-0.055,0.057,0.012,-0.070,0.016,-0.162,-0.234,-0.197,-0.144,-0.106
'0:00.957',-0.028,-0.084,-0.056,0.056,0.014,-0.071,0.012,-0.162,-0.231,-0.194,-0.144,-0.106
'0:00.958',-0.031,-0.084,-0.053,0.058,0.011,-0.069,0.012,-0.162,-0.228,-0.194,-0.141,-0.106
'0:00.959',-0.031,-0.084,-0.053,0.058,0.011,-0.069,0.012,-0.162,-0.231,-0.194,-0.144,-0.106
'0:00.960',-0.031,-0.083,-0.052,0.057,0.010,-0.067,0.012,-0.159,-0.228,-0.194,-0.144,-0.109
'0:00.961',-0.031,-0.081,-0.050,0.056,0.009,-0.066,0.012,-0.162,-0.231,-0.194,-0.144,-0.113
'0:00.962',-0.032,-0.079,-0.047,0.056,0.007,-0.063,0.009,-0.162,-0.228,-0.194,-0.141,-0.106
'0:00.963',-0.034,-0.081,-0.047,0.058,0.006,-0.064,0.012,-0.162,-0.225,-0.188,-0.138,-0.100
'0:00.964',-0.034,-0.082,-0.048,0.059,0.007,-0.066,0.016,-0.162,-0.225,-0.188,-0.134,-0.100
'0:00.965',-0.034,-0.087,-0.053,0.061,0.009,-0.071,0.019,-0.162,-0.225,-0.188,-0.131,-0.100
'0:00.966',-0.036,-0.089,-0.053,0.062,0.009,-0.071,0.019,-0.162,-0.219,-0.184,-0.131,-0.100
'0:00.967',-0.037,-0.091,-0.053,0.064,0.007,-0.072,0.019,-0.162,-0.219,-0.181,-0.131,-0.094
'0:00.968',-0.033,-0.087,-0.054,0.061,0.011,-0.071,0.019,-0.166,-0.219,-0.181,-0.128,-0.100
'0:00.969',-0.031,-0.087,-0.056,0.059,0.012,-0.072,0.019,-0.162,-0.219,-0.181,-0.125,-0.100
'0:00.970',-0.031,-0.087,-0.056,0.059,0.012,-0.072,0.019,-0.166,-0.222,-0.184,-0.119,-0.100
'0:00.971',-0.028,-0.087,-0.059,0.058,0.016,-0.074,0.019,-0.169,-0.225,-0.188,-0.119,-0.100
'0:00.972',-0.028,-0.087,-0.059,0.058,0.016,-0.074,0.019,-0.162,-0.219,-0.181,-0.119,-0.094
'0:00.973',-0.025,-0.087,-0.063,0.056,0.019,-0.075,0.019,-0.169,-0.219,-0.181,-0.119,-0.094
'0:00.974',-0.028,-0.084,-0.056,0.056,0.014,-0.071,0.019,-0.159,-0.216,-0.178,-0.122,-0.094
'0:00.975',-0.028,-0.081,-0.053,0.055,0.012,-0.067,0.019,-0.156,-0.213,-0.175,-0.119,-0.094
'0:00.976',-0.026,-0.079,-0.053,0.053,0.013,-0.066,0.019,-0.156,-0.216,-0.175,-0.128,-0.094
'0:00.977',-0.028,-0.081,-0.053,0.055,0.012,-0.067,0.019,-0.156,-0.213,-0.169,-0.131,-0.094
'0:00.978',-0.028,-0.081,-0.053,0.055,0.012,-0.067,0.016,-0.156,-0.209,-0.175,-0.125,-0.094
'0:00.979',-0.028,-0.081,-0.053,0.055,0.012,-0.067,0.012,-0.156,-0.206,-0.169,-0.125,-0.094
'0:00.980',-0.032,-0.082,-0.050,0.057,0.009,-0.066,0.016,-0.147,-0.200,-0.166,-0.122,-0.091
'0:00.981',-0.034,-0.084,-0.050,0.059,0.007,-0.067,0.019,-0.144,-0.200,-0.163,-0.119,-0.087
'0:00.982',-0.036,-0.084,-0.049,0.060,0.006,-0.067,0.022,-0.141,-0.200,-0.163,-0.119,-0.084
'0:00.983',-0.037,-0.084,-0.047,0.061,0.004,-0.066,0.025,-0.137,-0.200,-0.163,-0.119,-0.087
'0:00.984',-0.034,-0.078,-0.044,0.056,0.004,-0.061,0.022,-0.137,-0.200,-0.156,-0.119,-0.087
'0:00.985',-0.037,-0.075,-0.038,0.056,0.000,-0.056,0.019,-0.137,-0.200,-0.156,-0.119,-0.081
'0:00.986',-0.031,-0.074,-0.043,0.053,0.006,-0.058,0.019,-0.141,-0.206,-0.156,-0.116,-0.078
'0:00.987',-0.028,-0.072,-0.044,0.050,0.007,-0.058,0.019,-0.137,-0.206,-0.156,-0.119,-0.081
'0:00.988',-0.028,-0.075,-0.047,0.052,0.009,-0.061,0.019,-0.137,-0.200,-0.163,-0.119,-0.081
'0:00.989',-0.031,-0.075,-0.044,0.053,0.006,-0.059,0.019,-0.137,-0.194,-0.163,-0.119,-0.081
'0:00.990',-0.028,-0.075,-0.047,0.052,0.009,-0.061,0.019,-0.134,-0.194,-0.163,-0.119,-0.081
'0:00.991',-0.028,-0.075,-0.047,0.052,0.009,-0.061,0.019,-0.131,-0.194,-0.163,-0.119,-0.081
'0:00.992',-0.027,-0.074,-0.047,0.051,0.010,-0.061,0.019,-0.131,-0.197,-0.159,-0.119,-0.081
'0:00.993',-0.019,-0.072,-0.053,0.046,0.017,-0.062,0.019,-0.131,-0.200,-0.156,-0.119,-0.081
'0:00.994',-0.020,-0.073,-0.053,0.047,0.016,-0.063,0.016,-0.134,-0.194,-0.153,-0.116,-0.081
'0:00.995',-0.022,-0.072,-0.050,0.047,0.014,-0.061,0.019,-0.137,-0.194,-0.150,-0.113,-0.081
'0:00.996',-0.025,-0.072,-0.047,0.049,0.011,-0.059,0.012,-0.134,-0.191,-0.150,-0.113,-0.081
'0:00.997',-0.028,-0.075,-0.047,0.052,0.009,-0.061,0.012,-0.131,-0.187,-0.150,-0.113,-0.081
'0:00.998',-0.029,-0.073,-0.044,0.051,0.007,-0.059,0.012,-0.128,-0.184,-0.150,-0.113,-0.078
'0:00.999',-0.028,-0.075,-0.047,0.052,0.009,-0.061,0.012,-0.131,-0.181,-0.150,-0.113,-0.081
'0:01.000',-0.031,-0.074,-0.043,0.053,0.006,-0.058,0.012,-0.128,-0.187,-0.153,-0.106,-0.078
'0:01.001',-0.031,-0.072,-0.041,0.052,0.004,-0.056,0.012,-0.125,-0.187,-0.150,-0.106,-0.075
'0:01.002',-0.030,-0.072,-0.042,0.051,0.006,-0.057,0.016,-0.125,-0.184,-0.150,-0.109,-0.075
'0:01.003',-0.028,-0.069,-0.041,0.049,0.006,-0.055,0.019,-0.125,-0.181,-0.150,-0.113,-0.075
'0:01.004',-0.027,-0.072,-0.045,0.049,0.009,-0.059,0.019,-0.125,-0.178,-0.147,-0.113,-0.078
'0:01.005',-0.028,-0.072,-0.044,0.050,0.007,-0.058,0.019,-0.125,-0.175,-0.144,-0.113,-0.081
'0:01.006',-0.026,-0.073,-0.047,0.050,0.010,-0.060,0.019,-0.128,-0.175,-0.141,-0.109,-0.078
'0:01.007',-0.028,-0.072,-0.044,0.050,0.007,-0.058,0.019,-0.125,-0.175,-0.137,-0.106,-0.075
'0:01.008',-0.028,-0.072,-0.044,0.050,0.007,-0.058,0.016,-0.122,-0.175,-0.134,-0.106,-0.075
'0:01.009',-0.028,-0.072,-0.044,0.050,0.007,-0.058,0.019,-0.119,-0.169,-0.137,-0.100,-0.075
'0:01.010',-0.027,-0.072,-0.045,0.049,0.009,-0.059,0.016,-0.116,-0.172,-0.144,-0.103,-0.075
'0:01.011',-0.022,-0.069,-0.047,0.046,0.012,-0.058,0.019,-0.119,-0.169,-0.144,-0.100,-0.075
'0:01.012',-0.022,-0.069,-0.047,0.046,0.012,-0.058,0.019,-0.116,-0.172,-0.147,-0.100,-0.075
'0:01.013',-0.022,-0.069,-0.047,0.046,0.012,-0.058,0.019,-0.119,-0.169,-0.150,-0.100,-0.075
'0:01.014',-0.021,-0.066,-0.045,0.043,0.012,-0.056,0.019,-0.119,-0.178,-0.144,-0.100,-0.072
'0:01.015',-0.022,-0.069,-0.047,0.046,0.012,-0.058,0.019,-0.119,-0.175,-0.144,-0.094,-0.069
'0:01.016',-0.020,-0.069,-0.049,0.044,0.014,-0.059,0.016,-0.119,-0.175,-0.147,-0.091,-0.072
'0:01.017',-0.025,-0.069,-0.044,0.047,0.009,-0.056,0.012,-0.119,-0.175,-0.150,-0.094,-0.075
'0:01.018',-0.024,-0.067,-0.044,0.046,0.010,-0.056,0.012,-0.119,-0.175,-0.150,-0.097,-0.072
'0:01.019',-0.022,-0.069,-0.047,0.046,0.012,-0.058,0.019,-0.119,-0.175,-0.150,-0.100,-0.069
'0:01.020',-0.020,-0.066,-0.046,0.043,0.012,-0.056,0.012,-0.119,-0.172,-0.144,-0.097,-0.072
'0:01.021',-0.022,-0.066,-0.044,0.044,0.011,-0.055,0.012,-0.119,-0.169,-0.137,-0.100,-0.069
'0:01.022',-0.025,-0.067,-0.043,0.046,0.009,-0.055,0.016,-0.119,-0.172,-0.137,-0.106,-0.075
'0:01.023',-0.025,-0.066,-0.041,0.046,0.007,-0.053,0.012,-0.119,-0.175,-0.137,-0.106,-0.069
'0:01.024',-0.022,-0.066,-0.044,0.044,0.011,-0.055,0.016,-0.119,-0.175,-0.141,-0.103,-0.069
'0:01.025',-0.019,-0.066,-0.047,0.043,0.014,-0.056,0.012,-0.119,-0.175,-0.144,-0.100,-0.069
'0:01.026',-0.019,-0.064,-0.045,0.041,0.013,-0.054,0.016,-0.125,-0.172,-0.144,-0.100,-0.075
'0:01.027',-0.019,-0.066,-0.047,0.043,0.014,-0.056,0.019,-0.119,-0.169,-0.144,-0.100,-0.069
'0:01.028',-0.023,-0.067,-0.044,0.045,0.010,-0.056,0.019,-0.116,-0.169,-0.144,-0.100,-0.078
'0:01.029',-0.025,-0.069,-0.044,0.047,0.009,-0.056,0.019,-0.112,-0.169,-0.144,-0.100,-0.075
'0:01.030',-0.023,-0.069,-0.046,0.046,0.011,-0.057,0.019,-0.119,-0.169,-0.137,-0.100,-0.075
'0:01.031',-0.025,-0.069,-0.044,0.047,0.009,-0.056,0.019,-0.119,-0.169,-0.137,-0.100,-0.075
'0:01.032',-0.026,-0.069,-0.043,0.048,0.008,-0.056,0.019,-0.119,-0.169,-0.141,-0.100,-0.078
'0:01.033',-0.025,-0.066,-0.041,0.046,0.007,-0.053,0.019,-0.119,-0.169,-0.144,-0.100,-0.075
'0:01.034',-0.024,-0.067,-0.044,0.046,0.010,-0.056,0.016,-0.119,-0.169,-0.147,-0.100,-0.072
'0:01.035',-0.025,-0.066,-0.041,0.046,0.007,-0.053,0.012,-0.119,-0.169,-0.144,-0.100,-0.075
'0:01.036',-0.022,-0.069,-0.047,0.046,0.012,-0.058,0.012,-0.122,-0.172,-0.144,-0.100,-0.075
'0:01.037',-0.019,-0.069,-0.050,0.044,0.016,-0.059,0.012,-0.125,-0.175,-0.144,-0.100,-0.081
'0:01.038',-0.019,-0.072,-0.053,0.046,0.017,-0.062,0.016,-0.125,-0.175,-0.150,-0.100,-0.075
'0:01.039',-0.022,-0.072,-0.050,0.047,0.014,-0.061,0.019,-0.125,-0.175,-0.144,-0.100,-0.075
'0:01.040',-0.022,-0.075,-0.053,0.049,0.016,-0.064,0.019,-0.128,-0.169,-0.144,-0.100,-0.075
'0:01.041',-0.025,-0.078,-0.053,0.052,0.014,-0.066,0.019,-0.131,-0.162,-0.144,-0.100,-0.075
'0:01.042',-0.024,-0.077,-0.053,0.051,0.014,-0.065,0.019,-0.128,-0.169,-0.141,-0.100,-0.072
'0:01.043',-0.025,-0.075,-0.050,0.050,0.012,-0.062,0.019,-0.131,-0.169,-0.144,-0.100,-0.075
'0:01.044',-0.022,-0.075,-0.053,0.049,0.016,-0.064,0.019,-0.131,-0.169,-0.147,-0.106,-0.075
'0:01.045',-0.019,-0.072,-0.053,0.046,0.017,-0.062,0.019,-0.131,-0.169,-0.150,-0.100,-0.075
'0:01.046',-0.023,-0.075,-0.052,0.049,0.014,-0.064,0.016,-0.131,-0.172,-0.150,-0.103,-0.078
'0:01.047',-0.028,-0.078,-0.050,0.053,0.011,-0.064,0.012,-0.131,-0.175,-0.150,-0.100,-0.081
'0:01.048',-0.025,-0.079,-0.054,0.053,0.014,-0.067,0.016,-0.131,-0.172,-0.150,-0.100,-0.078
'0:01.049',-0.025,-0.081,-0.056,0.053,0.016,-0.069,0.019,-0.131,-0.169,-0.150,-0.100,-0.075
'0:01.050',-0.026,-0.082,-0.056,0.054,0.015,-0.069,0.019,-0.128,-0.172,-0.144,-0.100,-0.078
'0:01.051',-0.028,-0.087,-0.059,0.058,0.016,-0.074,0.019,-0.125,-0.175,-0.144,-0.100,-0.081
'0:01.052',-0.024,-0.087,-0.064,0.056,0.020,-0.076,0.019,-0.122,-0.172,-0.137,-0.100,-0.075
'0:01.053',-0.019,-0.087,-0.069,0.053,0.025,-0.078,0.019,-0.125,-0.169,-0.137,-0.100,-0.081
'0:01.054',-0.020,-0.086,-0.066,0.053,0.023,-0.076,0.016,-0.125,-0.172,-0.147,-0.100,-0.081
'0:01.055',-0.022,-0.084,-0.063,0.053,0.020,-0.074,0.012,-0.125,-0.169,-0.150,-0.106,-0.081
'0:01.056',-0.023,-0.084,-0.061,0.054,0.019,-0.073,0.012,-0.125,-0.169,-0.150,-0.103,-0.078
'0:01.057',-0.025,-0.084,-0.059,0.055,0.017,-0.072,0.012,-0.125,-0.169,-0.150,-0.106,-0.075
'0:01.058',-0.024,-0.086,-0.062,0.055,0.019,-0.074,0.016,-0.128,-0.166,-0.153,-0.103,-0.081
'0:01.059',-0.022,-0.087,-0.066,0.055,0.022,-0.077,0.019,-0.125,-0.162,-0.156,-0.106,-0.081
'0:01.060',-0.024,-0.089,-0.066,0.057,0.021,-0.077,0.019,-0.128,-0.166,-0.153,-0.109,-0.075
'0:01.061',-0.025,-0.087,-0.063,0.056,0.019,-0.075,0.019,-0.131,-0.169,-0.150,-0.106,-0.081
'0:01.062',-0.023,-0.092,-0.069,0.057,0.022,-0.081,0.019,-0.134,-0.172,-0.150,-0.109,-0.075
'0:01.063',-0.025,-0.091,-0.066,0.058,0.020,-0.078,0.019,-0.137,-0.175,-0.150,-0.106,-0.075
'0:01.064',-0.022,-0.091,-0.069,0.056,0.023,-0.080,0.019,-0.141,-0.172,-0.153,-0.109,-0.078
'0:01.065',-0.019,-0.091,-0.072,0.055,0.026,-0.081,0.012,-0.144,-0.175,-0.156,-0.113,-0.075
'0:01.066',-0.020,-0.089,-0.069,0.055,0.024,-0.079,0.012,-0.137,-0.178,-0.153,-0.116,-0.078
'0:01.067',-0.022,-0.091,-0.069,0.056,0.023,-0.080,0.012,-0.137,-0.175,-0.156,-0.119,-0.081
'0:01.068',-0.022,-0.091,-0.069,0.056,0.023,-0.080,0.016,-0.137,-0.178,-0.156,-0.116,-0.078
'0:01.069',-0.022,-0.091,-0.069,0.056,0.023,-0.080,0.019,-0.137,-0.175,-0.156,-0.113,-0.075
'0:01.070',-0.025,-0.091,-0.066,0.058,0.020,-0.078,0.016,-0.137,-0.175,-0.156,-0.119,-0.075
'0:01.071',-0.025,-0.091,-0.066,0.058,0.020,-0.078,0.019,-0.137,-0.175,-0.156,-0.119,-0.075
'0:01.072',-0.026,-0.089,-0.063,0.058,0.018,-0.076,0.012,-0.141,-0.178,-0.156,-0.122,-0.075
'0:01.073',-0.031,-0.087,-0.056,0.059,0.012,-0.072,0.012,-0.144,-0.181,-0.156,-0.125,-0.075
'0:01.074',-0.030,-0.094,-0.064,0.062,0.017,-0.079,0.012,-0.141,-0.181,-0.156,-0.116,-0.075
'0:01.075',-0.028,-0.097,-0.069,0.062,0.020,-0.083,0.019,-0.137,-0.181,-0.156,-0.119,-0.075
'0:01.076',-0.029,-0.098,-0.069,0.064,0.019,-0.084,0.012,-0.144,-0.181,-0.153,-0.119,-0.075
'0:01.077',-0.031,-0.100,-0.069,0.066,0.019,-0.084,0.019,-0.144,-0.181,-0.156,-0.119,-0.075
'0:01.078',-0.028,-0.100,-0.072,0.064,0.022,-0.086,0.012,-0.147,-0.184,-0.156,-0.122,-0.078
'0:01.079',-0.028,-0.100,-0.072,0.064,0.022,-0.086,0.012,-0.150,-0.175,-0.156,-0.125,-0.081
'0:01.080',-0.028,-0.099,-0.071,0.064,0.021,-0.085,0.012,-0.150,-0.181,-0.153,-0.125,-0.081
'0:01.081',-0.028,-0.100,-0.072,0.064,0.022,-0.086,0.019,-0.150,-0.181,-0.156,-0.125,-0.081
'0:01.082',-0.028,-0.097,-0.069,0.062,0.020,-0.083,0.019,-0.153,-0.181,-0.156,-0.128,-0.081
'0:01.083',-0.028,-0.094,-0.066,0.061,0.019,-0.080,0.019,-0.156,-0.181,-0.156,-0.131,-0.081
'0:01.084',-0.029,-0.098,-0.069,0.064,0.019,-0.084,0.016,-0.156,-0.181,-0.153,-0.128,-0.078
'0:01.085',-0.028,-0.097,-0.069,0.062,0.020,-0.083,0.019,-0.156,-0.181,-0.156,-0.131,-0.081
'0:01.086',-0.028,-0.096,-0.068,0.062,0.019,-0.082,0.016,-0.159,-0.184,-0.156,-0.131,-0.081
'0:01.087',-0.028,-0.094,-0.066,0.061,0.019,-0.080,0.012,-0.156,-0.194,-0.156,-0.131,-0.081
'0:01.088',-0.028,-0.100,-0.072,0.064,0.022,-0.086,0.012,-0.156,-0.194,-0.156,-0.131,-0.081
'0:01.089',-0.031,-0.100,-0.069,0.066,0.019,-0.084,0.012,-0.156,-0.187,-0.156,-0.131,-0.075
'0:01.090',-0.032,-0.096,-0.063,0.064,0.015,-0.079,0.012,-0.156,-0.194,-0.156,-0.131,-0.078
'0:01.091',-0.034,-0.097,-0.063,0.066,0.014,-0.080,0.012,-0.156,-0.194,-0.156,-0.131,-0.075
'0:01.092',-0.039,-0.103,-0.064,0.071,0.012,-0.084,0.016,-0.159,-0.197,-0.156,-0.128,-0.078
'0:01.093',-0.041,-0.109,-0.069,0.075,0.014,-0.089,0.019,-0.162,-0.194,-0.156,-0.125,-0.081
'0:01.094',-0.039,-0.111,-0.071,0.075,0.016,-0.091,0.016,-0.159,-0.200,-0.156,-0.125,-0.081
'0:01.095',-0.037,-0.109,-0.072,0.074,0.017,-0.091,0.012,-0.156,-0.200,-0.156,-0.125,-0.081
'0:01.096',-0.036,-0.111,-0.075,0.074,0.019,-0.093,0.009,-0.162,-0.203,-0.159,-0.122,-0.081
'0:01.097',-0.034,-0.109,-0.075,0.072,0.020,-0.092,0.006,-0.162,-0.206,-0.163,-0.119,-0.081
'0:01.098',-0.031,-0.109,-0.078,0.071,0.023,-0.094,0.006,-0.166,-0.203,-0.166,-0.131,-0.084
'0:01.099',-0.028,-0.109,-0.081,0.069,0.026,-0.096,0.006,-0.169,-0.200,-0.169,-0.131,-0.087
'0:01.100',-0.029,-0.108,-0.079,0.069,0.024,-0.094,0.006,-0.166,-0.203,-0.163,-0.128,-0.078
'0:01.101',-0.031,-0.106,-0.075,0.069,0.022,-0.091,0.006,-0.162,-0.206,-0.163,-0.125,-0.081
'0:01.102',-0.034,-0.109,-0.075,0.072,0.020,-0.092,0.006,-0.162,-0.206,-0.166,-0.131,-0.084
'0:01.103',-0.034,-0.109,-0.075,0.072,0.020,-0.092,0.006,-0.162,-0.206,-0.169,-0.131,-0.087
'0:01.104',-0.037,-0.111,-0.073,0.074,0.017,-0.092,0.009,-0.162,-0.206,-0.169,-0.125,-0.087
'0:01.105',-0.037,-0.112,-0.075,0.075,0.019,-0.094,0.012,-0.162,-0.206,-0.169,-0.131,-0.087
'0:01.106',-0.037,-0.109,-0.072,0.074,0.017,-0.091,0.016,-0.166,-0.203,-0.169,-0.131,-0.087
'0:01.107',-0.037,-0.112,-0.075,0.075,0.019,-0.094,0.019,-0.169,-0.200,-0.169,-0.131,-0.087
'0:01.108',-0.037,-0.111,-0.074,0.074,0.018,-0.092,0.016,-0.169,-0.200,-0.169,-0.134,-0.087
'0:01.109',-0.037,-0.109,-0.072,0.074,0.017,-0.091,0.012,-0.169,-0.200,-0.169,-0.138,-0.087
'0:01.110',-0.037,-0.108,-0.071,0.073,0.016,-0.089,0.009,-0.172,-0.203,-0.172,-0.138,-0.084
'0:01.111',-0.037,-0.106,-0.069,0.072,0.016,-0.087,0.006,-0.175,-0.206,-0.175,-0.138,-0.081
'0:01.112',-0.037,-0.109,-0.072,0.074,0.017,-0.091,0.009,-0.175,-0.206,-0.172,-0.134,-0.084
'0:01.113',-0.037,-0.109,-0.072,0.074,0.017,-0.091,0.019,-0.175,-0.206,-0.169,-0.131,-0.087
'0:01.114',-0.037,-0.111,-0.073,0.074,0.017,-0.092,0.016,-0.175,-0.206,-0.172,-0.131,-0.091
'0:01.115',-0.037,-0.116,-0.078,0.077,0.020,-0.097,0.019,-0.175,-0.206,-0.175,-0.131,-0.094
'0:01.116',-0.036,-0.117,-0.081,0.077,0.022,-0.099,0.016,-0.175,-0.206,-0.175,-0.134,-0.094
'0:01.117',-0.034,-0.116,-0.081,0.075,0.023,-0.099,0.012,-0.175,-0.206,-0.175,-0.138,-0.094
'0:01.118',-0.037,-0.120,-0.082,0.079,0.022,-0.101,0.016,-0.172,-0.206,-0.175,-0.138,-0.094
'0:01.119',-0.037,-0.122,-0.084,0.080,0.023,-0.103,0.019,-0.169,-0.206,-0.175,-0.138,-0.094
'0:01.120',-0.034,-0.121,-0.086,0.078,0.026,-0.104,0.019,-0.169,-0.206,-0.175,-0.138,-0.094
'0:01.121',-0.031,-0.119,-0.088,0.075,0.028,-0.103,0.019,-0.169,-0.206,-0.175,-0.138,-0.094
'0:01.122',-0.034,-0.119,-0.084,0.077,0.025,-0.102,0.016,-0.172,-0.206,-0.175,-0.138,-0.094
'0:01.123',-0.034,-0.119,-0.084,0.077,0.025,-0.102,0.012,-0.175,-0.206,-0.175,-0.138,-0.094
'0:01.124',-0.036,-0.122,-0.086,0.079,0.025,-0.104,0.016,-0.175,-0.206,-0.175,-0.138,-0.097
'0:01.125',-0.037,-0.125,-0.088,0.081,0.025,-0.106,0.019,-0.175,-0.206,-0.175,-0.138,-0.094
'0:01.126',-0.037,-0.125,-0.088,0.081,0.025,-0.106,0.019,-0.175,-0.203,-0.172,-0.138,-0.094
'0:01.127',-0.034,-0.125,-0.091,0.080,0.028,-0.108,0.019,-0.175,-0.200,-0.169,-0.138,-0.094
'0:01.128',-0.037,-0.125,-0.088,0.081,0.025,-0.106,0.019,-0.172,-0.200,-0.166,-0.138,-0.087
'0:01.129',-0.037,-0.125,-0.088,0.081,0.025,-0.106,0.019,-0.169,-0.200,-0.163,-0.138,-0.094
'0:01.130',-0.037,-0.124,-0.086,0.081,0.024,-0.105,0.016,-0.172,-0.203,-0.166,-0.134,-0.091
'0:01.131',-0.037,-0.125,-0.088,0.081,0.025,-0.106,0.019,-0.175,-0.206,-0.169,-0.131,-0.094
'0:01.132',-0.037,-0.126,-0.089,0.082,0.026,-0.107,0.019,-0.178,-0.206,-0.172,-0.134,-0.094
'0:01.133',-0.037,-0.128,-0.091,0.083,0.026,-0.109,0.012,-0.181,-0.206,-0.175,-0.138,-0.094
'0:01.134',-0.037,-0.122,-0.084,0.080,0.023,-0.103,0.009,-0.181,-0.206,-0.175,-0.138,-0.097
'0:01.135',-0.037,-0.122,-0.084,0.080,0.023,-0.103,0.006,-0.181,-0.206,-0.175,-0.138,-0.094
'0:01.136',-0.041,-0.125,-0.084,0.083,0.022,-0.105,0.006,-0.181,-0.206,-0.175,-0.134,-0.094
'0:01.137',-0.041,-0.128,-0.088,0.084,0.023,-0.108,0.006,-0.181,-0.200,-0.175,-0.131,-0.094
'0:01.138',-0.041,-0.131,-0.091,0.086,0.025,-0.111,0.006,-0.181,-0.200,-0.178,-0.131,-0.091
'0:01.139',-0.041,-0.131,-0.091,0.086,0.025,-0.111,0.012,-0.181,-0.200,-0.181,-0.131,-0.094
'0:01.140',-0.039,-0.131,-0.092,0.086,0.026,-0.112,0.019,-0.181,-0.200,-0.178,-0.134,-0.100
'0:01.141',-0.037,-0.131,-0.094,0.084,0.028,-0.112,0.019,-0.181,-0.206,-0.175,-0.138,-0.100
'0:01.142',-0.036,-0.131,-0.096,0.084,0.030,-0.114,0.016,-0.184,-0.206,-0.178,-0.134,-0.100
'0:01.143',-0.037,-0.128,-0.091,0.083,0.026,-0.109,0.012,-0.187,-0.206,-0.181,-0.131,-0.100
'0:01.144',-0.036,-0.130,-0.094,0.083,0.029,-0.112,0.012,-0.187,-0.200,-0.181,-0.134,-0.100
'0:01.145',-0.034,-0.125,-0.091,0.080,0.028,-0.108,0.012,-0.181,-0.200,-0.181,-0.138,-0.100
'0:01.146',-0.034,-0.125,-0.091,0.080,0.028,-0.108,0.009,-0.184,-0.209,-0.184,-0.134,-0.100
'0:01.147',-0.034,-0.122,-0.088,0.078,0.026,-0.105,0.012,-0.181,-0.206,-0.188,-0.131,-0.100
'0:01.148',-0.036,-0.125,-0.089,0.081,0.027,-0.107,0.016,-0.181,-0.206,-0.188,-0.131,-0.100
'0:01.149',-0.041,-0.125,-0.084,0.083,0.022,-0.105,0.019,-0.181,-0.206,-0.181,-0.131,-0.100
'0:01.150',-0.045,-0.126,-0.081,0.086,0.018,-0.104,0.019,-0.175,-0.206,-0.178,-0.131,-0.100
'0:01.151',-0.050,-0.128,-0.078,0.089,0.014,-0.103,0.019,-0.175,-0.206,-0.175,-0.131,-0.094
'0:01.152',-0.046,-0.128,-0.082,0.087,0.018,-0.106,0.019,-0.178,-0.203,-0.178,-0.134,-0.100
'0:01.153',-0.047,-0.125,-0.078,0.086,0.016,-0.102,0.019,-0.181,-0.206,-0.181,-0.131,-0.094
'0:01.154',-0.043,-0.128,-0.086,0.086,0.021,-0.107,0.019,-0.178,-0.213,-0.181,-0.141,-0.094
'0:01.155',-0.041,-0.128,-0.088,0.084,0.023,-0.108,0.012,-0.175,-0.213,-0.188,-0.138,-0.094
'0:01.156',-0.042,-0.128,-0.086,0.085,0.022,-0.107,0.012,-0.175,-0.209,-0.178,-0.134,-0.097
'0:01.157',-0.044,-0.131,-0.088,0.088,0.022,-0.109,0.012,-0.175,-0.206,-0.175,-0.138,-0.094
'0:01.158',-0.043,-0.130,-0.088,0.086,0.022,-0.109,0.009,-0.172,-0.209,-0.172,-0.138,-0.094
'0:01.159',-0.041,-0.128,-0.088,0.084,0.023,-0.108,0.006,-0.175,-0.213,-0.175,-0.138,-0.094
'0:01.160',-0.041,-0.129,-0.089,0.085,0.024,-0.109,0.003,-0.172,-0.209,-0.178,-0.138,-0.094
'0:01.161',-0.047,-0.131,-0.084,0.089,0.019,-0.108,0.006,-0.175,-0.206,-0.175,-0.131,-0.094
'0:01.162',-0.045,-0.134,-0.089,0.090,0.022,-0.112,0.009,-0.175,-0.203,-0.175,-0.141,-0.097
'0:01.163',-0.044,-0.137,-0.094,0.091,0.025,-0.116,0.012,-0.175,-0.206,-0.175,-0.138,-0.094
'0:01.164',-0.047,-0.137,-0.091,0.093,0.022,-0.114,0.006,-0.175,-0.206,-0.178,-0.138,-0.097
'0:01.165',-0.047,-0.134,-0.088,0.091,0.020,-0.111,0.006,-0.175,-0.206,-0.181,-0.144,-0.100
'0:01.166',-0.044,-0.132,-0.089,0.088,0.022,-0.111,0.003,-0.178,-0.206,-0.175,-0.138,-0.100
'0:01.167',-0.044,-0.134,-0.091,0.089,0.023,-0.112,0.000,-0.181,-0.206,-0.175,-0.138,-0.100
'0:01.168',-0.043,-0.131,-0.089,0.087,0.023,-0.110,0.006,-0.175,-0.206,-0.175,-0.138,-0.100
'0:01.169',-0.044,-0.134,-0.091,0.089,0.023,-0.112,0.006,-0.175,-0.206,-0.175,-0.138,-0.100
'0:01.170',-0.041,-0.134,-0.094,0.088,0.026,-0.114,0.003,-0.175,-0.209,-0.172,-0.141,-0.103
'0:01.171',-0.041,-0.134,-0.094,0.088,0.026,-0.114,0.000,-0.175,-0.206,-0.169,-0.138,-0.100
'0:01.172',-0.045,-0.134,-0.089,0.090,0.022,-0.112,0.006,-0.175,-0.206,-0.172,-0.134,-0.100
'0:01.173',-0.044,-0.134,-0.091,0.089,0.023,-0.112,0.006,-0.175,-0.206,-0.175,-0.131,-0.100
'0:01.174',-0.048,-0.134,-0.086,0.091,0.019,-0.111,0.006,-0.175,-0.203,-0.175,-0.134,-0.100
'0:01.175',-0.047,-0.134,-0.088,0.091,0.020,-0.111,0.006,-0.175,-0.200,-0.175,-0.138,-0.100
'0:01.176',-0.047,-0.136,-0.089,0.091,0.021,-0.112,0.000,-0.169,-0.203,-0.178,-0.134,-0.103
'0:01.177',-0.047,-0.137,-0.091,0.093,0.022,-0.114,0.000,-0.169,-0.206,-0.175,-0.131,-0.100
'0:01.178',-0.047,-0.134,-0.088,0.091,0.020,-0.111,-0.003,-0.172,-0.206,-0.175,-0.138,-0.106
'0:01.179',-0.047,-0.131,-0.084,0.089,0.019,-0.108,0.000,-0.175,-0.206,-0.175,-0.138,-0.106
'0:01.180',-0.046,-0.130,-0.084,0.088,0.019,-0.107,0.003,-0.175,-0.206,-0.175,-0.134,-0.100
'0:01.181',-0.044,-0.128,-0.084,0.086,0.020,-0.106,0.000,-0.169,-0.206,-0.175,-0.131,-0.100
'0:01.182',-0.044,-0.130,-0.086,0.087,0.021,-0.108,0.000,-0.175,-0.200,-0.175,-0.134,-0.103
'0:01.183',-0.041,-0.131,-0.091,0.086,0.025,-0.111,0.000,-0.175,-0.206,-0.181,-0.138,-0.100
'0:01.184',-0.041,-0.129,-0.089,0.085,0.024,-0.109,0.000,-0.178,-0.206,-0.181,-0.138,-0.097
'0:01.185',-0.041,-0.131,-0.091,0.086,0.025,-0.111,0.000,-0.181,-0.206,-0.181,-0.138,-0.100
'0:01.186',-0.041,-0.131,-0.091,0.086,0.025,-0.111,0.003,-0.181,-0.209,-0.178,-0.134,-0.097
'0:01.187',-0.041,-0.128,-0.088,0.084,0.023,-0.108,0.000,-0.181,-0.213,-0.181,-0.138,-0.100
'0:01.188',-0.039,-0.128,-0.089,0.084,0.025,-0.109,-0.003,-0.184,-0.206,-0.181,-0.134,-0.103
'0:01.189',-0.041,-0.128,-0.088,0.084,0.023,-0.108,-0.006,-0.187,-0.206,-0.181,-0.138,-0.100
'0:01.190',-0.042,-0.130,-0.088,0.086,0.023,-0.109,0.003,-0.181,-0.203,-0.175,-0.138,-0.100
'0:01.191',-0.044,-0.131,-0.088,0.088,0.022,-0.109,0.006,-0.181,-0.200,-0.175,-0.138,-0.100
'0:01.192',-0.046,-0.129,-0.084,0.088,0.019,-0.107,0.006,-0.178,-0.203,-0.172,-0.134,-0.097
'0:01.193',-0.044,-0.131,-0.088,0.088,0.022,-0.109,0.006,-0.181,-0.206,-0.175,-0.138,-0.100
'0:01.194',-0.044,-0.132,-0.089,0.088,0.022,-0.111,0.006,-0.181,-0.209,-0.178,-0.138,-0.100
'0:01.195',-0.044,-0.134,-0.091,0.089,0.023,-0.112,0.006,-0.181,-0.213,-0.175,-0.138,-0.100
'0:01.196',-0.042,-0.131,-0.089,0.087,0.024,-0.111,0.009,-0.175,-0.206,-0.178,-0.138,-0.097
'0:01.197',-0.041,-0.131,-0.091,0.086,0.025,-0.111,0.012,-0.175,-0.206,-0.181,-0.138,-0.100
'0:01.198',-0.044,-0.128,-0.084,0.086,0.020,-0.106,0.009,-0.175,-0.206,-0.181,-0.141,-0.103
'0:01.199',-0.047,-0.128,-0.081,0.088,0.017,-0.105,0.006,-0.175,-0.206,-0.181,-0.138,-0.100
'0:01.200',-0.047,-0.131,-0.084,0.089,0.019,-0.108,0.016,-0.172,-0.203,-0.175,-0.134,-0.100
'0:01.201',-0.047,-0.131,-0.084,0.089,0.019,-0.108,0.012,-0.175,-0.206,-0.175,-0.138,-0.100
'0:01.202',-0.043,-0.131,-0.089,0.087,0.023,-0.110,0.016,-0.175,-0.209,-0.178,-0.141,-0.094
'0:01.203',-0.044,-0.134,-0.091,0.089,0.023,-0.112,0.012,-0.175,-0.206,-0.175,-0.138,-0.094
'0:01.204',-0.046,-0.136,-0.090,0.091,0.022,-0.113,0.009,-0.181,-0.209,-0.175,-0.138,-0.100
'0:01.205',-0.047,-0.137,-0.091,0.093,0.022,-0.114,0.012,-0.181,-0.213,-0.175,-0.138,-0.100
'0:01.206',-0.042,-0.136,-0.094,0.089,0.026,-0.116,0.012,-0.181,-0.203,-0.172,-0.141,-0.100
'0:01.207',-0.044,-0.131,-0.088,0.088,0.022,-0.109,0.012,-0.175,-0.200,-0.169,-0.138,-0.094
'0:01.208',-0.041,-0.131,-0.091,0.086,0.025,-0.111,0.012,-0.181,-0.203,-0.172,-0.147,-0.100
'0:01.209',-0.037,-0.131,-0.094,0.084,0.028,-0.112,0.006,-0.175,-0.206,-0.175,-0.144,-0.100
'0:01.210',-0.036,-0.127,-0.091,0.082,0.027,-0.109,0.012,-0.178,-0.203,-0.175,-0.144,-0.094
'0:01.211',-0.034,-0.122,-0.088,0.078,0.026,-0.105,0.012,-0.175,-0.206,-0.175,-0.144,-0.100
'0:01.212',-0.036,-0.126,-0.091,0.081,0.027,-0.109,0.016,-0.175,-0.203,-0.178,-0.141,-0.097
'0:01.213',-0.044,-0.131,-0.088,0.088,0.022,-0.109,0.012,-0.175,-0.200,-0.175,-0.131,-0.100
'0:01.214',-0.044,-0.134,-0.091,0.089,0.023,-0.112,0.012,-0.175,-0.200,-0.175,-0.131,-0.103
'0:01.215',-0.044,-0.131,-0.088,0.088,0.022,-0.109,0.012,-0.175,-0.200,-0.175,-0.131,-0.106
'0:01.216',-0.044,-0.131,-0.088,0.088,0.022,-0.109,0.006,-0.175,-0.197,-0.175,-0.131,-0.103
'0:01.217',-0.041,-0.128,-0.088,0.084,0.023,-0.108,0.006,-0.175,-0.194,-0.175,-0.138,-0.100
'0:01.218',-0.039,-0.128,-0.089,0.084,0.025,-0.109,0.009,-0.178,-0.197,-0.178,-0.138,-0.100
'0:01.219',-0.044,-0.128,-0.084,0.086,0.020,-0.106,0.006,-0.181,-0.200,-0.175,-0.144,-0.100
'0:01.220',-0.045,-0.126,-0.081,0.086,0.018,-0.104,0.006,-0.178,-0.194,-0.175,-0.144,-0.097
'0:01.221',-0.044,-0.128,-0.084,0.086,0.020,-0.106,0.006,-0.175,-0.194,-0.175,-0.144,-0.100
'0:01.222',-0.044,-0.126,-0.082,0.085,0.019,-0.104,0.003,-0.175,-0.194,-0.175,-0.138,-0.100
'0:01.223',-0.041,-0.128,-0.088,0.084,0.023,-0.108,0.000,-0.175,-0.194,-0.175,-0.138,-0.094
'0:01.224',-0.042,-0.127,-0.085,0.084,0.021,-0.106,0.003,-0.172,-0.197,-0.178,-0.144,-0.103
'0:01.225',-0.044,-0.125,-0.081,0.084,0.019,-0.103,0.006,-0.169,-0.194,-0.175,-0.144,-0.106
'0:01.226',-0.044,-0.127,-0.083,0.086,0.019,-0.105,0.012,-0.172,-0.197,-0.175,-0.147,-0.103
'0:01.227',-0.044,-0.128,-0.084,0.086,0.020,-0.106,0.012,-0.175,-0.194,-0.181,-0.144,-0.100
'0:01.228',-0.043,-0.124,-0.081,0.083,0.019,-0.102,0.009,-0.172,-0.200,-0.178,-0.147,-0.103
'0:01.229',-0.041,-0.125,-0.084,0.083,0.022,-0.105,0.006,-0.175,-0.200,-0.181,-0.138,-0.100
'0:01.230',-0.034,-0.124,-0.089,0.079,0.027,-0.107,0.006,-0.178,-0.203,-0.184,-0.138,-0.100
'0:01.231',-0.034,-0.122,-0.088,0.078,0.026,-0.105,0.006,-0.175,-0.200,-0.181,-0.138,-0.100
'0:01.232',-0.037,-0.125,-0.088,0.081,0.025,-0.106,-0.003,-0.175,-0.200,-0.178,-0.141,-0.100
'0:01.233',-0.041,-0.125,-0.084,0.083,0.022,-0.105,-0.006,-0.175,-0.200,-0.175,-0.144,-0.106
'0:01.234',-0.042,-0.125,-0.083,0.084,0.021,-0.104,0.000,-0.175,-0.203,-0.175,-0.141,-0.103
'0:01.235',-0.047,-0.125,-0.078,0.086,0.016,-0.102,0.000,-0.175,-0.206,-0.175,-0.144,-0.100
'0:01.236',-0.047,-0.128,-0.081,0.088,0.017,-0.105,0.003,-0.169,-0.200,-0.172,-0.138,-0.100
'0:01.237',-0.047,-0.128,-0.081,0.088,0.017,-0.105,0.000,-0.169,-0.200,-0.175,-0.138,-0.100
'0:01.238',-0.042,-0.129,-0.087,0.086,0.022,-0.108,0.003,-0.169,-0.203,-0.178,-0.138,-0.100
'0:01.239',-0.037,-0.128,-0.091,0.083,0.026,-0.109,0.000,-0.175,-0.200,-0.181,-0.138,-0.100
'0:01.240',-0.039,-0.128,-0.089,0.084,0.025,-0.109,0.000,-0.178,-0.200,-0.175,-0.141,-0.094
'0:01.241',-0.041,-0.128,-0.088,0.084,0.023,-0.108,0.000,-0.175,-0.200,-0.175,-0.144,-0.094
'0:01.242',-0.044,-0.128,-0.084,0.086,0.020,-0.106,0.009,-0.172,-0.197,-0.172,-0.138,-0.094
'0:01.243',-0.044,-0.131,-0.088,0.088,0.022,-0.109,0.006,-0.175,-0.194,-0.169,-0.138,-0.100
'0:01.244',-0.043,-0.125,-0.082,0.084,0.020,-0.104,0.006,-0.172,-0.197,-0.175,-0.144,-0.106
'0:01.245',-0.037,-0.122,-0.084,0.080,0.023,-0.103,0.006,-0.175,-0.200,-0.175,-0.144,-0.106
'0:01.246',-0.036,-0.122,-0.086,0.079,0.024,-0.104,0.003,-0.172,-0.200,-0.178,-0.147,-0.103
'0:01.247',-0.034,-0.122,-0.088,0.078,0.026,-0.105,0.000,-0.175,-0.200,-0.181,-0.150,-0.106
'0:01.248',-0.034,-0.119,-0.084,0.077,0.025,-0.102,0.003,-0.175,-0.197,-0.172,-0.147,-0.106
'0:01.249',-0.037,-0.119,-0.081,0.078,0.022,-0.100,0.006,-0.175,-0.200,-0.175,-0.144,-0.106
'0:01.250',-0.037,-0.119,-0.081,0.078,0.022,-0.100,0.003,-0.172,-0.200,-0.175,-0.144,-0.106
'0:01.251',-0.041,-0.119,-0.078,0.080,0.019,-0.099,0.000,-0.169,-0.200,-0.175,-0.144,-0.106
'0:01.252',-0.041,-0.119,-0.078,0.080,0.019,-0.099,-0.003,-0.172,-0.197,-0.178,-0.147,-0.113
'0:01.253',-0.041,-0.119,-0.078,0.080,0.019,-0.099,-0.006,-0.169,-0.200,-0.175,-0.144,-0.113
'0:01.254',-0.039,-0.123,-0.084,0.081,0.022,-0.104,-0.009,-0.172,-0.200,-0.181,-0.150,-0.106
'0:01.255',-0.037,-0.125,-0.088,0.081,0.025,-0.106,-0.006,-0.169,-0.200,-0.175,-0.150,-0.100
'0:01.256',-0.042,-0.123,-0.081,0.083,0.019,-0.102,-0.003,-0.169,-0.197,-0.175,-0.141,-0.097
'0:01.257',-0.041,-0.125,-0.084,0.083,0.022,-0.105,-0.006,-0.169,-0.194,-0.175,-0.144,-0.094
'0:01.258',-0.039,-0.125,-0.086,0.083,0.023,-0.106,-0.003,-0.172,-0.191,-0.175,-0.144,-0.103
'0:01.259',-0.041,-0.125,-0.084,0.083,0.022,-0.105,0.000,-0.175,-0.194,-0.175,-0.144,-0.106
'0:01.260',-0.041,-0.125,-0.084,0.083,0.022,-0.105,0.000,-0.175,-0.197,-0.175,-0.144,-0.106
'0:01.261',-0.044,-0.125,-0.081,0.084,0.019,-0.103,0.000,-0.175,-0.194,-0.175,-0.144,-0.106
'0:01.262',-0.043,-0.125,-0.082,0.084,0.020,-0.104,0.000,-0.175,-0.194,-0.169,-0.144,-0.106
'0:01.263',-0.044,-0.125,-0.081,0.084,0.019,-0.103,0.000,-0.175,-0.194,-0.169,-0.144,-0.106
'0:01.264',-0.039,-0.125,-0.086,0.083,0.023,-0.106,0.000,-0.175,-0.194,-0.175,-0.144,-0.106
'0:01.265',-0.037,-0.128,-0.091,0.083,0.026,-0.109,0.000,-0.175,-0.194,-0.175,-0.144,-0.106
'0:01.266',-0.039,-0.121,-0.081,0.080,0.021,-0.101,-0.003,-0.175,-0.194,-0.175,-0.144,-0.109
'0:01.267',-0.034,-0.119,-0.084,0.077,0.025,-0.102,-0.006,-0.169,-0.194,-0.175,-0.144,-0.113
'0:01.268',-0.036,-0.120,-0.084,0.078,0.024,-0.102,-0.003,-0.175,-0.197,-0.175,-0.147,-0.106
'0:01.269',-0.037,-0.122,-0.084,0.080,0.023,-0.103,0.000,-0.175,-0.200,-0.175,-0.144,-0.106
'0:01.270',-0.036,-0.119,-0.083,0.078,0.024,-0.101,-0.003,-0.172,-0.197,-0.172,-0.147,-0.109
'0:01.271',-0.034,-0.119,-0.084,0.077,0.025,-0.102,-0.006,-0.169,-0.194,-0.175,-0.144,-0.119
'0:01.272',-0.039,-0.122,-0.083,0.081,0.022,-0.102,0.000,-0.172,-0.194,-0.175,-0.144,-0.109
'0:01.273',-0.041,-0.122,-0.081,0.081,0.020,-0.102,0.006,-0.169,-0.194,-0.169,-0.138,-0.106
'0:01.274',-0.044,-0.123,-0.079,0.084,0.017,-0.101,0.006,-0.166,-0.191,-0.169,-0.141,-0.103
'0:01.275',-0.047,-0.125,-0.078,0.086,0.016,-0.102,0.006,-0.169,-0.187,-0.169,-0.138,-0.100
'0:01.276',-0.047,-0.126,-0.079,0.087,0.016,-0.103,0.003,-0.169,-0.191,-0.169,-0.138,-0.097
'0:01.277',-0.047,-0.128,-0.081,0.088,0.017,-0.105,0.006,-0.169,-0.194,-0.169,-0.138,-0.094
'0:01.278',-0.047,-0.123,-0.076,0.085,0.014,-0.100,0.000,-0.169,-0.194,-0.172,-0.138,-0.100
'0:01.279',-0.047,-0.122,-0.075,0.084,0.014,-0.099,0.000,-0.169,-0.194,-0.175,-0.138,-0.100
'0:01.280',-0.045,-0.122,-0.077,0.084,0.016,-0.099,-0.003,-0.172,-0.200,-0.175,-0.141,-0.097
'0:01.281',-0.047,-0.119,-0.072,0.083,0.012,-0.096,0.000,-0.169,-0.200,-0.175,-0.144,-0.094
'0:01.282',-0.044,-0.116,-0.072,0.080,0.014,-0.094,0.000,-0.172,-0.200,-0.178,-0.141,-0.100
'0:01.283',-0.037,-0.109,-0.072,0.074,0.017,-0.091,0.000,-0.175,-0.200,-0.181,-0.138,-0.100
'0:01.284',-0.041,-0.114,-0.073,0.078,0.016,-0.094,0.003,-0.169,-0.197,-0.178,-0.134,-0.100
'0:01.285',-0.041,-0.122,-0.081,0.081,0.020,-0.102,0.006,-0.162,-0.194,-0.175,-0.144,-0.100
'0:01.286',-0.041,-0.122,-0.081,0.081,0.020,-0.102,0.006,-0.162,-0.191,-0.166,-0.138,-0.097
'0:01.287',-0.041,-0.122,-0.081,0.081,0.020,-0.102,0.006,-0.162,-0.187,-0.169,-0.138,-0.094
'0:01.288',-0.042,-0.125,-0.083,0.084,0.021,-0.104,0.009,-0.162,-0.187,-0.169,-0.144,-0.091
'0:01.289',-0.041,-0.125,-0.084,0.083,0.022,-0.105,0.012,-0.162,-0.187,-0.169,-0.138,-0.087
'0:01.290',-0.041,-0.124,-0.083,0.083,0.021,-0.104,0.012,-0.162,-0.187,-0.169,-0.134,-0.097
'0:01.291',-0.037,-0.122,-0.084,0.080,0.023,-0.103,0.012,-0.162,-0.194,-0.169,-0.138,-0.100
'0:01.292',-0.034,-0.124,-0.089,0.079,0.027,-0.107,0.016,-0.162,-0.194,-0.169,-0.134,-0.100
'0:01.293',-0.031,-0.125,-0.094,0.078,0.031,-0.109,0.019,-0.162,-0.194,-0.169,-0.131,-0.100
'0:01.294',-0.034,-0.131,-0.097,0.083,0.031,-0.114,0.016,-0.172,-0.194,-0.175,-0.141,-0.103
'0:01.295',-0.034,-0.137,-0.103,0.086,0.034,-0.121,0.012,-0.175,-0.194,-0.175,-0.144,-0.094
'0:01.296',-0.037,-0.141,-0.103,0.089,0.032,-0.122,0.009,-0.169,-0.191,-0.172,-0.144,-0.103
'0:01.297',-0.037,-0.144,-0.106,0.091,0.034,-0.125,0.012,-0.169,-0.187,-0.169,-0.144,-0.100
'0:01.298',-0.036,-0.141,-0.105,0.088,0.034,-0.123,0.009,-0.172,-0.194,-0.172,-0.138,-0.106
'0:01.299',-0.031,-0.141,-0.109,0.086,0.039,-0.125,0.006,-0.175,-0.194,-0.175,-0.138,-0.106
'0:01.300',-0.027,-0.133,-0.106,0.080,0.039,-0.120,0.012,-0.166,-0.194,-0.172,-0.141,-0.100
'0:01.301',-0.025,-0.128,-0.103,0.077,0.039,-0.116,0.012,-0.162,-0.194,-0.175,-0.144,-0.100
'0:01.302',-0.022,-0.121,-0.099,0.071,0.038,-0.110,0.006,-0.156,-0.191,-0.172,-0.141,-0.097
'0:01.303',-0.016,-0.116,-0.100,0.066,0.042,-0.108,0.006,-0.156,-0.187,-0.169,-0.138,-0.100
'0:01.304',-0.019,-0.109,-0.091,0.064,0.036,-0.100,0.012,-0.144,-0.181,-0.159,-0.131,-0.097
'0:01.305',-0.019,-0.103,-0.084,0.061,0.032,-0.094,0.019,-0.144,-0.175,-0.156,-0.125,-0.094
