'Elapsed time','I','II','III','AVR','AVL','AVF','V1','V2','V3','V4','V5','V6'
'hh:mm:ss.mmm','mV','mV','mV','mV','mV','mV','mV','mV','mV','mV','mV','mV'
'0:00.000',-0.027,-0.077,-0.050,0.052,0.011,-0.064,0.037,-0.081,-0.137,-0.144,-0.100,-0.069
'0:00.001',-0.028,-0.078,-0.050,0.053,0.011,-0.064,0.037,-0.081,-0.137,-0.144,-0.100,-0.069
'0:00.002',-0.029,-0.079,-0.050,0.054,0.010,-0.065,0.037,-0.081,-0.137,-0.144,-0.100,-0.069
'0:00.003',-0.031,-0.081,-0.050,0.056,0.009,-0.066,0.037,-0.081,-0.137,-0.144,-0.100,-0.069
'0:00.004',-0.030,-0.078,-0.048,0.054,0.009,-0.063,0.034,-0.078,-0.137,-0.144,-0.100,-0.069
'0:00.005',-0.028,-0.075,-0.047,0.052,0.009,-0.061,0.031,-0.075,-0.137,-0.144,-0.100,-0.069
'0:00.006',-0.025,-0.071,-0.046,0.048,0.010,-0.058,0.031,-0.072,-0.137,-0.144,-0.100,-0.069
'0:00.007',-0.022,-0.066,-0.044,0.044,0.011,-0.055,0.031,-0.069,-0.137,-0.144,-0.100,-0.069
'0:00.008',-0.023,-0.066,-0.042,0.044,0.009,-0.054,0.031,-0.069,-0.137,-0.147,-0.100,-0.069
'0:00.009',-0.025,-0.066,-0.041,0.046,0.008,-0.053,0.031,-0.069,-0.137,-0.150,-0.100,-0.069
'0:00.010',-0.024,-0.066,-0.042,0.045,0.009,-0.054,0.034,-0.066,-0.134,-0.147,-0.103,-0.069
'0:00.011',-0.022,-0.066,-0.044,0.044,0.011,-0.055,0.037,-0.062,-0.131,-0.144,-0.106,-0.069
'0:00.012',-0.023,-0.067,-0.044,0.045,0.010,-0.056,0.037,-0.059,-0.128,-0.137,-0.100,-0.066
'0:00.013',-0.025,-0.069,-0.044,0.047,0.009,-0.056,0.037,-0.056,-0.125,-0.131,-0.094,-0.063
'0:00.014',-0.025,-0.069,-0.044,0.047,0.009,-0.056,0.037,-0.050,-0.119,-0.128,-0.091,-0.066
'0:00.015',-0.025,-0.069,-0.044,0.047,0.009,-0.056,0.037,-0.044,-0.112,-0.125,-0.087,-0.069
'0:00.016',-0.024,-0.069,-0.045,0.046,0.011,-0.057,0.037,-0.041,-0.109,-0.122,-0.087,-0.066
'0:00.017',-0.022,-0.069,-0.047,0.046,0.013,-0.058,0.037,-0.038,-0.106,-0.119,-0.087,-0.063
'0:00.018',-0.022,-0.067,-0.046,0.045,0.012,-0.057,0.041,-0.031,-0.100,-0.112,-0.084,-0.059
'0:00.019',-0.022,-0.066,-0.044,0.044,0.011,-0.055,0.044,-0.025,-0.094,-0.106,-0.081,-0.056
'0:00.020',-0.021,-0.061,-0.041,0.041,0.010,-0.051,0.041,-0.022,-0.094,-0.106,-0.078,-0.059
'0:00.021',-0.019,-0.056,-0.037,0.037,0.009,-0.047,0.037,-0.019,-0.094,-0.106,-0.075,-0.063
'0:00.022',-0.020,-0.056,-0.036,0.038,0.008,-0.046,0.037,-0.016,-0.084,-0.103,-0.072,-0.059
'0:00.023',-0.022,-0.056,-0.034,0.039,0.006,-0.046,0.037,-0.012,-0.075,-0.100,-0.069,-0.056
'0:00.024',-0.019,-0.055,-0.036,0.037,0.009,-0.046,0.037,-0.009,-0.072,-0.094,-0.069,-0.053
'0:00.025',-0.016,-0.053,-0.037,0.034,0.011,-0.046,0.037,-0.006,-0.069,-0.087,-0.069,-0.050
'0:00.026',-0.011,-0.050,-0.039,0.031,0.014,-0.044,0.037,-0.003,-0.066,-0.087,-0.069,-0.053
'0:00.027',-0.006,-0.047,-0.041,0.027,0.017,-0.044,0.037,0.000,-0.062,-0.087,-0.069,-0.056
'0:00.028',-0.005,-0.044,-0.039,0.024,0.017,-0.041,0.037,0.006,-0.059,-0.084,-0.066,-0.056
'0:00.029',-0.003,-0.041,-0.037,0.022,0.017,-0.039,0.037,0.012,-0.056,-0.081,-0.062,-0.056
'0:00.030',-0.006,-0.042,-0.036,0.024,0.014,-0.039,0.034,0.019,-0.053,-0.075,-0.059,-0.050
'0:00.031',-0.009,-0.044,-0.034,0.027,0.013,-0.039,0.031,0.025,-0.050,-0.069,-0.056,-0.044
'0:00.032',-0.008,-0.041,-0.033,0.024,0.012,-0.037,0.031,0.025,-0.047,-0.066,-0.053,-0.044
'0:00.033',-0.006,-0.037,-0.031,0.022,0.013,-0.034,0.031,0.025,-0.044,-0.062,-0.050,-0.044
'0:00.034',-0.005,-0.036,-0.031,0.021,0.013,-0.034,0.034,0.031,-0.041,-0.059,-0.050,-0.041
'0:00.035',-0.003,-0.034,-0.031,0.019,0.014,-0.033,0.037,0.038,-0.037,-0.056,-0.050,-0.038
'0:00.036',-0.003,-0.033,-0.030,0.018,0.013,-0.032,0.037,0.044,-0.034,-0.053,-0.044,-0.038
'0:00.037',-0.003,-0.031,-0.028,0.018,0.013,-0.030,0.037,0.050,-0.031,-0.050,-0.038,-0.038
'0:00.038',-0.002,-0.031,-0.029,0.017,0.014,-0.031,0.034,0.053,-0.028,-0.044,-0.034,-0.034
'0:00.039',0.000,-0.031,-0.031,0.016,0.016,-0.031,0.031,0.056,-0.025,-0.037,-0.031,-0.031
'0:00.040',0.000,-0.031,-0.031,0.016,0.016,-0.031,0.034,0.063,-0.019,-0.034,-0.031,-0.028
'0:00.041',0.000,-0.031,-0.031,0.016,0.016,-0.031,0.037,0.069,-0.012,-0.031,-0.031,-0.025
'0:00.042',0.003,-0.025,-0.028,0.011,0.016,-0.027,0.034,0.075,-0.006,-0.028,-0.031,-0.025
'0:00.043',0.006,-0.019,-0.025,0.006,0.016,-0.022,0.031,0.081,0.000,-0.025,-0.031,-0.025
'0:00.044',0.007,-0.019,-0.026,0.006,0.017,-0.022,0.031,0.084,0.006,-0.019,-0.025,-0.022
'0:00.045',0.009,-0.019,-0.028,0.005,0.019,-0.024,0.031,0.088,0.012,-0.012,-0.019,-0.019
'0:00.046',0.009,-0.016,-0.025,0.003,0.017,-0.021,0.031,0.091,0.019,-0.006,-0.016,-0.019
'0:00.047',0.009,-0.012,-0.022,0.002,0.016,-0.017,0.031,0.094,0.025,0.000,-0.012,-0.019
'0:00.048',0.009,-0.012,-0.022,0.002,0.016,-0.017,0.034,0.100,0.031,0.006,-0.009,-0.019
'0:00.049',0.009,-0.012,-0.022,0.002,0.016,-0.017,0.037,0.106,0.038,0.012,-0.006,-0.019
'0:00.050',0.016,-0.006,-0.022,-0.004,0.019,-0.014,0.034,0.113,0.044,0.009,-0.003,-0.016
'0:00.051',0.022,0.000,-0.022,-0.011,0.022,-0.011,0.031,0.119,0.050,0.006,0.000,-0.012
'0:00.052',0.022,0.000,-0.022,-0.011,0.022,-0.011,0.028,0.131,0.059,0.019,0.003,-0.006
'0:00.053',0.022,0.000,-0.022,-0.011,0.022,-0.011,0.025,0.144,0.069,0.031,0.006,0.000
'0:00.054',0.021,0.000,-0.021,-0.010,0.021,-0.011,0.028,0.150,0.072,0.037,0.009,0.000
'0:00.055',0.019,0.000,-0.019,-0.009,0.019,-0.009,0.031,0.156,0.075,0.044,0.012,0.000
'0:00.056',0.019,0.001,-0.018,-0.010,0.018,-0.008,0.031,0.163,0.081,0.047,0.019,0.003
'0:00.057',0.019,0.003,-0.016,-0.011,0.017,-0.006,0.031,0.169,0.088,0.050,0.025,0.006
'0:00.058',0.019,0.003,-0.016,-0.011,0.017,-0.006,0.028,0.175,0.094,0.059,0.031,0.012
'0:00.059',0.019,0.003,-0.016,-0.011,0.017,-0.006,0.025,0.181,0.100,0.069,0.038,0.019
'0:00.060',0.022,0.006,-0.016,-0.014,0.019,-0.005,0.025,0.187,0.106,0.075,0.038,0.019
'0:00.061',0.025,0.009,-0.016,-0.017,0.020,-0.003,0.025,0.194,0.113,0.081,0.038,0.019
'0:00.062',0.028,0.012,-0.016,-0.020,0.022,-0.002,0.025,0.200,0.122,0.081,0.041,0.019
'0:00.063',0.031,0.016,-0.016,-0.023,0.023,0.000,0.025,0.206,0.131,0.081,0.044,0.019
'0:00.064',0.036,0.020,-0.016,-0.028,0.026,0.002,0.025,0.213,0.134,0.091,0.044,0.019
'0:00.065',0.041,0.025,-0.016,-0.033,0.028,0.004,0.025,0.219,0.138,0.100,0.044,0.019
'0:00.066',0.041,0.028,-0.013,-0.034,0.026,0.008,0.022,0.222,0.147,0.106,0.047,0.022
'0:00.067',0.041,0.031,-0.009,-0.036,0.025,0.011,0.019,0.225,0.156,0.112,0.050,0.025
'0:00.068',0.042,0.031,-0.011,-0.036,0.026,0.010,0.022,0.237,0.166,0.119,0.056,0.031
'0:00.069',0.044,0.031,-0.013,-0.038,0.028,0.009,0.025,0.250,0.175,0.125,0.063,0.037
'0:00.070',0.045,0.038,-0.007,-0.041,0.026,0.015,0.025,0.256,0.181,0.131,0.066,0.037
'0:00.071',0.047,0.044,-0.003,-0.045,0.025,0.020,0.025,0.263,0.187,0.137,0.069,0.037
'0:00.072',0.047,0.044,-0.003,-0.045,0.025,0.020,0.022,0.269,0.194,0.144,0.075,0.037
'0:00.073',0.047,0.044,-0.003,-0.045,0.025,0.020,0.019,0.275,0.200,0.150,0.081,0.037
'0:00.074',0.050,0.047,-0.003,-0.048,0.026,0.022,0.019,0.288,0.209,0.156,0.081,0.041
'0:00.075',0.053,0.050,-0.003,-0.051,0.028,0.023,0.019,0.300,0.219,0.162,0.081,0.044
'0:00.076',0.054,0.053,-0.001,-0.054,0.028,0.026,0.022,0.306,0.225,0.169,0.087,0.050
'0:00.077',0.056,0.056,0.000,-0.056,0.028,0.028,0.025,0.312,0.231,0.175,0.094,0.056
'0:00.078',0.056,0.059,0.003,-0.058,0.026,0.031,0.025,0.322,0.238,0.184,0.097,0.059
'0:00.079',0.056,0.063,0.006,-0.059,0.025,0.034,0.025,0.331,0.244,0.194,0.100,0.063
'0:00.080',0.061,0.066,0.005,-0.063,0.028,0.035,0.025,0.341,0.253,0.200,0.106,0.066
'0:00.081',0.066,0.069,0.003,-0.067,0.031,0.036,0.025,0.350,0.263,0.206,0.113,0.069
'0:00.082',0.067,0.073,0.006,-0.070,0.030,0.039,0.025,0.356,0.272,0.212,0.116,0.072
'0:00.083',0.069,0.078,0.009,-0.073,0.029,0.044,0.025,0.362,0.281,0.219,0.119,0.075
'0:00.084',0.069,0.078,0.009,-0.073,0.029,0.044,0.025,0.372,0.291,0.228,0.125,0.075
'0:00.085',0.069,0.078,0.009,-0.073,0.029,0.044,0.025,0.381,0.300,0.237,0.131,0.075
'0:00.086',0.075,0.081,0.006,-0.078,0.034,0.044,0.022,0.388,0.306,0.241,0.131,0.075
'0:00.087',0.081,0.084,0.003,-0.083,0.039,0.044,0.019,0.394,0.313,0.244,0.131,0.075
'0:00.088',0.084,0.091,0.006,-0.088,0.039,0.048,0.022,0.400,0.319,0.253,0.141,0.078
'0:00.089',0.087,0.097,0.009,-0.092,0.039,0.053,0.025,0.406,0.325,0.262,0.150,0.081
'0:00.090',0.094,0.101,0.007,-0.098,0.043,0.054,0.022,0.412,0.331,0.266,0.150,0.081
'0:00.091',0.100,0.106,0.006,-0.103,0.047,0.056,0.019,0.419,0.338,0.269,0.150,0.081
'0:00.092',0.100,0.105,0.005,-0.103,0.048,0.055,0.016,0.428,0.347,0.281,0.156,0.091
'0:00.093',0.100,0.103,0.003,-0.101,0.048,0.053,0.012,0.438,0.356,0.294,0.163,0.100
'0:00.094',0.099,0.104,0.006,-0.101,0.046,0.055,0.012,0.447,0.366,0.300,0.169,0.103
'0:00.095',0.097,0.106,0.009,-0.101,0.044,0.058,0.012,0.456,0.375,0.306,0.175,0.106
'0:00.096',0.098,0.111,0.012,-0.104,0.043,0.061,0.012,0.466,0.381,0.313,0.178,0.106
'0:00.097',0.100,0.116,0.016,-0.108,0.042,0.066,0.012,0.475,0.388,0.319,0.181,0.106
'0:00.098',0.103,0.119,0.016,-0.111,0.044,0.067,0.012,0.481,0.397,0.322,0.184,0.112
'0:00.099',0.106,0.122,0.016,-0.114,0.045,0.069,0.012,0.488,0.406,0.325,0.187,0.119
'0:00.100',0.106,0.125,0.019,-0.116,0.044,0.072,0.012,0.491,0.409,0.331,0.191,0.119
'0:00.101',0.106,0.128,0.022,-0.117,0.042,0.075,0.012,0.494,0.413,0.338,0.194,0.119
'0:00.102',0.111,0.129,0.019,-0.120,0.046,0.074,0.012,0.500,0.419,0.344,0.200,0.125
'0:00.103',0.116,0.131,0.016,-0.123,0.050,0.073,0.012,0.506,0.425,0.350,0.206,0.131
'0:00.104',0.119,0.132,0.014,-0.126,0.053,0.073,0.009,0.513,0.428,0.353,0.206,0.131
'0:00.105',0.122,0.134,0.012,-0.128,0.054,0.073,0.006,0.519,0.431,0.356,0.206,0.131
'0:00.106',0.123,0.136,0.012,-0.129,0.055,0.074,0.006,0.522,0.438,0.359,0.209,0.131
'0:00.107',0.125,0.137,0.012,-0.131,0.056,0.075,0.006,0.525,0.444,0.363,0.213,0.131
'0:00.108',0.124,0.137,0.014,-0.131,0.055,0.076,0.003,0.531,0.447,0.369,0.216,0.134
'0:00.109',0.122,0.137,0.016,-0.129,0.053,0.076,0.000,0.537,0.450,0.375,0.219,0.137
'0:00.110',0.122,0.139,0.017,-0.130,0.053,0.078,0.000,0.541,0.456,0.375,0.222,0.137
'0:00.111',0.122,0.141,0.019,-0.131,0.051,0.079,0.000,0.544,0.463,0.375,0.225,0.137
'0:00.112',0.122,0.141,0.019,-0.131,0.051,0.079,0.000,0.547,0.469,0.378,0.225,0.144
'0:00.113',0.122,0.141,0.019,-0.131,0.051,0.079,0.000,0.550,0.475,0.381,0.225,0.150
'0:00.114',0.122,0.141,0.019,-0.131,0.051,0.079,0.000,0.553,0.475,0.391,0.231,0.153
'0:00.115',0.122,0.141,0.019,-0.131,0.051,0.079,0.000,0.556,0.475,0.400,0.238,0.156
'0:00.116',0.125,0.144,0.019,-0.134,0.053,0.081,0.000,0.556,0.478,0.400,0.234,0.156
'0:00.117',0.128,0.147,0.019,-0.138,0.054,0.082,0.000,0.556,0.481,0.400,0.231,0.156
'0:00.118',0.128,0.150,0.022,-0.139,0.053,0.086,0.000,0.563,0.488,0.400,0.238,0.156
'0:00.119',0.128,0.153,0.025,-0.141,0.051,0.089,0.000,0.569,0.494,0.400,0.244,0.156
'0:00.120',0.132,0.156,0.024,-0.144,0.054,0.090,0.000,0.569,0.494,0.400,0.244,0.153
'0:00.121',0.138,0.159,0.022,-0.148,0.058,0.091,0.000,0.569,0.494,0.400,0.244,0.150
'0:00.122',0.141,0.161,0.020,-0.151,0.060,0.090,-0.003,0.569,0.494,0.403,0.244,0.153
'0:00.123',0.144,0.163,0.019,-0.153,0.063,0.091,-0.006,0.569,0.494,0.406,0.244,0.156
'0:00.124',0.144,0.163,0.019,-0.153,0.063,0.091,-0.006,0.575,0.494,0.409,0.247,0.159
'0:00.125',0.144,0.163,0.019,-0.153,0.063,0.091,-0.006,0.581,0.494,0.413,0.250,0.163
'0:00.126',0.142,0.161,0.019,-0.152,0.062,0.090,-0.009,0.581,0.500,0.416,0.247,0.163
'0:00.127',0.141,0.159,0.019,-0.150,0.061,0.089,-0.013,0.581,0.506,0.419,0.244,0.163
'0:00.128',0.142,0.161,0.019,-0.151,0.061,0.089,-0.013,0.581,0.506,0.419,0.250,0.163
'0:00.129',0.144,0.163,0.019,-0.153,0.063,0.091,-0.013,0.581,0.506,0.419,0.256,0.163
'0:00.130',0.141,0.161,0.021,-0.151,0.060,0.091,-0.013,0.584,0.513,0.422,0.256,0.166
'0:00.131',0.138,0.159,0.022,-0.148,0.058,0.091,-0.013,0.587,0.519,0.425,0.256,0.169
'0:00.132',0.138,0.159,0.022,-0.148,0.058,0.091,-0.013,0.587,0.522,0.428,0.253,0.169
'0:00.133',0.138,0.159,0.022,-0.148,0.058,0.091,-0.013,0.587,0.525,0.431,0.250,0.169
'0:00.134',0.138,0.156,0.019,-0.147,0.059,0.087,-0.013,0.591,0.522,0.434,0.256,0.172
'0:00.135',0.138,0.153,0.016,-0.145,0.061,0.084,-0.013,0.594,0.519,0.438,0.262,0.175
'0:00.136',0.138,0.153,0.016,-0.145,0.061,0.084,-0.013,0.597,0.522,0.434,0.266,0.175
'0:00.137',0.138,0.153,0.016,-0.145,0.061,0.084,-0.013,0.600,0.525,0.431,0.269,0.175
'0:00.138',0.139,0.158,0.019,-0.148,0.060,0.088,-0.013,0.600,0.525,0.431,0.266,0.175
'0:00.139',0.141,0.163,0.022,-0.151,0.059,0.092,-0.013,0.600,0.525,0.431,0.262,0.175
'0:00.140',0.141,0.163,0.022,-0.151,0.059,0.092,-0.009,0.597,0.525,0.431,0.262,0.172
'0:00.141',0.141,0.163,0.022,-0.151,0.059,0.092,-0.006,0.594,0.525,0.431,0.262,0.169
'0:00.142',0.141,0.163,0.022,-0.151,0.059,0.092,-0.006,0.594,0.525,0.431,0.266,0.169
'0:00.143',0.141,0.163,0.022,-0.151,0.059,0.092,-0.006,0.594,0.525,0.431,0.269,0.169
'0:00.144',0.141,0.163,0.022,-0.151,0.059,0.092,-0.009,0.594,0.528,0.431,0.269,0.175
'0:00.145',0.141,0.163,0.022,-0.151,0.059,0.092,-0.013,0.594,0.531,0.431,0.269,0.181
'0:00.146',0.139,0.161,0.022,-0.150,0.059,0.091,-0.013,0.597,0.531,0.438,0.269,0.181
'0:00.147',0.138,0.159,0.022,-0.148,0.058,0.091,-0.013,0.600,0.531,0.444,0.269,0.181
'0:00.148',0.138,0.166,0.028,-0.151,0.054,0.097,-0.013,0.600,0.531,0.441,0.269,0.181
'0:00.149',0.138,0.172,0.034,-0.154,0.051,0.103,-0.013,0.600,0.531,0.438,0.269,0.181
'0:00.150',0.139,0.172,0.033,-0.155,0.053,0.103,-0.009,0.603,0.531,0.438,0.269,0.184
'0:00.151',0.141,0.172,0.031,-0.156,0.054,0.101,-0.006,0.606,0.531,0.438,0.269,0.187
'0:00.152',0.141,0.171,0.030,-0.156,0.055,0.100,-0.006,0.609,0.534,0.441,0.269,0.187
'0:00.153',0.141,0.169,0.028,-0.154,0.056,0.098,-0.006,0.613,0.537,0.444,0.269,0.187
'0:00.154',0.139,0.168,0.028,-0.153,0.056,0.098,-0.006,0.609,0.537,0.447,0.275,0.187
'0:00.155',0.138,0.166,0.028,-0.151,0.054,0.097,-0.006,0.606,0.537,0.450,0.281,0.187
'0:00.156',0.136,0.166,0.029,-0.151,0.053,0.098,-0.006,0.606,0.541,0.450,0.281,0.187
'0:00.157',0.134,0.166,0.031,-0.150,0.051,0.098,-0.006,0.606,0.544,0.450,0.281,0.187
'0:00.158',0.134,0.169,0.034,-0.151,0.050,0.101,-0.006,0.606,0.544,0.447,0.281,0.187
'0:00.159',0.134,0.172,0.037,-0.153,0.048,0.104,-0.006,0.606,0.544,0.444,0.281,0.187
'0:00.160',0.136,0.173,0.037,-0.154,0.049,0.105,-0.009,0.606,0.544,0.447,0.281,0.184
'0:00.161',0.138,0.175,0.037,-0.156,0.050,0.106,-0.013,0.606,0.544,0.450,0.281,0.181
'0:00.162',0.139,0.175,0.036,-0.157,0.051,0.106,-0.013,0.603,0.544,0.447,0.281,0.181
'0:00.163',0.141,0.175,0.034,-0.158,0.053,0.104,-0.013,0.600,0.544,0.444,0.281,0.181
'0:00.164',0.141,0.175,0.034,-0.158,0.053,0.104,-0.013,0.600,0.544,0.444,0.278,0.184
'0:00.165',0.141,0.175,0.034,-0.158,0.053,0.104,-0.013,0.600,0.544,0.444,0.275,0.187
'0:00.166',0.139,0.175,0.036,-0.157,0.052,0.105,-0.013,0.600,0.541,0.444,0.278,0.187
'0:00.167',0.138,0.175,0.037,-0.156,0.050,0.106,-0.013,0.600,0.537,0.444,0.281,0.187
'0:00.168',0.136,0.176,0.040,-0.156,0.048,0.108,-0.009,0.597,0.534,0.441,0.281,0.187
'0:00.169',0.134,0.178,0.044,-0.156,0.045,0.111,-0.006,0.594,0.531,0.438,0.281,0.187
'0:00.170',0.134,0.178,0.044,-0.156,0.045,0.111,-0.003,0.591,0.528,0.434,0.278,0.187
'0:00.171',0.134,0.178,0.044,-0.156,0.045,0.111,0.000,0.587,0.525,0.431,0.275,0.187
'0:00.172',0.134,0.178,0.044,-0.156,0.045,0.111,0.000,0.581,0.519,0.428,0.278,0.184
'0:00.173',0.134,0.178,0.044,-0.156,0.045,0.111,0.000,0.575,0.513,0.425,0.281,0.181
'0:00.174',0.131,0.177,0.046,-0.154,0.043,0.111,0.000,0.566,0.506,0.422,0.278,0.181
'0:00.175',0.128,0.175,0.047,-0.151,0.041,0.111,0.000,0.556,0.500,0.419,0.275,0.181
'0:00.176',0.122,0.175,0.053,-0.148,0.034,0.114,0.003,0.550,0.491,0.413,0.269,0.178
'0:00.177',0.116,0.175,0.059,-0.145,0.028,0.117,0.006,0.544,0.481,0.406,0.262,0.175
'0:00.178',0.112,0.175,0.063,-0.144,0.025,0.119,0.006,0.534,0.475,0.400,0.259,0.175
'0:00.179',0.109,0.175,0.066,-0.142,0.022,0.120,0.006,0.525,0.469,0.394,0.256,0.175
'0:00.180',0.111,0.175,0.064,-0.143,0.023,0.119,0.003,0.519,0.459,0.384,0.250,0.172
'0:00.181',0.112,0.175,0.063,-0.144,0.025,0.119,0.000,0.513,0.450,0.375,0.244,0.169
'0:00.182',0.111,0.175,0.064,-0.143,0.024,0.119,0.000,0.506,0.444,0.369,0.241,0.163
'0:00.183',0.109,0.175,0.066,-0.142,0.022,0.120,0.000,0.500,0.438,0.363,0.238,0.156
'0:00.184',0.107,0.176,0.069,-0.141,0.019,0.122,0.003,0.491,0.428,0.356,0.234,0.156
'0:00.185',0.103,0.175,0.072,-0.139,0.016,0.123,0.006,0.481,0.419,0.344,0.231,0.156
'0:00.186',0.100,0.171,0.071,-0.135,0.014,0.121,0.016,0.469,0.416,0.344,0.225,0.153
'0:00.187',0.097,0.166,0.069,-0.131,0.014,0.117,0.019,0.456,0.406,0.338,0.219,0.156
'0:00.188',0.096,0.164,0.069,-0.130,0.013,0.116,0.022,0.444,0.394,0.322,0.203,0.144
'0:00.189',0.087,0.163,0.075,-0.125,0.006,0.119,0.025,0.438,0.388,0.313,0.194,0.137
'0:00.190',0.083,0.164,0.081,-0.123,0.001,0.122,0.028,0.428,0.375,0.303,0.200,0.134
'0:00.191',0.084,0.163,0.078,-0.123,0.003,0.120,0.031,0.419,0.356,0.294,0.194,0.131
'0:00.192',0.086,0.164,0.078,-0.124,0.004,0.121,0.031,0.403,0.347,0.281,0.187,0.125
'0:00.193',0.084,0.163,0.078,-0.123,0.003,0.120,0.031,0.388,0.331,0.269,0.181,0.119
'0:00.194',0.081,0.156,0.075,-0.119,0.003,0.116,0.022,0.378,0.331,0.262,0.181,0.119
'0:00.195',0.078,0.153,0.075,-0.116,0.001,0.114,0.019,0.369,0.319,0.250,0.181,0.119
'0:00.196',0.074,0.149,0.075,-0.111,-0.001,0.112,0.025,0.356,0.309,0.237,0.169,0.112
'0:00.197',0.069,0.141,0.072,-0.104,-0.002,0.106,0.025,0.350,0.300,0.231,0.163,0.106
'0:00.198',0.061,0.131,0.070,-0.096,-0.004,0.101,0.028,0.341,0.291,0.225,0.159,0.106
'0:00.199',0.056,0.125,0.069,-0.091,-0.006,0.097,0.031,0.325,0.275,0.219,0.156,0.100
'0:00.200',0.053,0.125,0.072,-0.089,-0.009,0.098,0.028,0.319,0.263,0.206,0.147,0.094
'0:00.201',0.053,0.122,0.069,-0.088,-0.008,0.095,0.025,0.306,0.256,0.200,0.144,0.087
'0:00.202',0.051,0.122,0.071,-0.086,-0.010,0.096,0.028,0.291,0.244,0.191,0.128,0.081
'0:00.203',0.050,0.119,0.069,-0.084,-0.009,0.094,0.025,0.275,0.225,0.175,0.119,0.075
'0:00.204',0.049,0.112,0.064,-0.081,-0.008,0.088,0.028,0.266,0.222,0.169,0.116,0.078
'0:00.205',0.047,0.106,0.059,-0.076,-0.006,0.082,0.037,0.250,0.213,0.156,0.113,0.075
'0:00.206',0.041,0.100,0.059,-0.070,-0.009,0.079,0.034,0.247,0.200,0.150,0.106,0.075
'0:00.207',0.034,0.097,0.063,-0.066,-0.014,0.079,0.037,0.237,0.187,0.144,0.106,0.069
'0:00.208',0.030,0.093,0.063,-0.061,-0.016,0.078,0.034,0.225,0.178,0.128,0.091,0.059
'0:00.209',0.028,0.091,0.063,-0.059,-0.018,0.076,0.037,0.213,0.169,0.119,0.081,0.050
'0:00.210',0.033,0.086,0.054,-0.059,-0.011,0.070,0.037,0.203,0.159,0.112,0.078,0.053
'0:00.211',0.031,0.081,0.050,-0.056,-0.009,0.066,0.037,0.194,0.150,0.106,0.075,0.050
'0:00.212',0.027,0.080,0.053,-0.053,-0.013,0.066,0.037,0.181,0.141,0.097,0.069,0.044
'0:00.213',0.025,0.075,0.050,-0.050,-0.013,0.062,0.037,0.169,0.131,0.087,0.063,0.037
'0:00.214',0.021,0.072,0.051,-0.046,-0.016,0.061,0.044,0.166,0.125,0.094,0.066,0.044
'0:00.215',0.016,0.069,0.053,-0.042,-0.019,0.061,0.044,0.163,0.119,0.094,0.063,0.044
'0:00.216',0.014,0.066,0.052,-0.039,-0.019,0.059,0.041,0.137,0.100,0.069,0.047,0.034
'0:00.217',0.012,0.066,0.053,-0.039,-0.021,0.059,0.037,0.131,0.094,0.062,0.050,0.031
'0:00.218',0.012,0.058,0.046,-0.035,-0.017,0.052,0.037,0.128,0.084,0.059,0.047,0.025
'0:00.219',0.012,0.056,0.044,-0.034,-0.016,0.050,0.037,0.113,0.075,0.050,0.038,0.019
'0:00.220',0.012,0.055,0.042,-0.034,-0.015,0.049,0.034,0.106,0.069,0.047,0.034,0.019
'0:00.221',0.009,0.050,0.041,-0.029,-0.016,0.045,0.037,0.100,0.063,0.044,0.031,0.019
'0:00.222',0.011,0.047,0.036,-0.029,-0.013,0.041,0.041,0.097,0.059,0.041,0.028,0.016
'0:00.223',0.009,0.041,0.031,-0.025,-0.011,0.036,0.044,0.088,0.050,0.037,0.025,0.019
'0:00.224',0.000,0.033,0.033,-0.016,-0.017,0.033,0.044,0.072,0.041,0.028,0.019,0.012
'0:00.225',-0.003,0.028,0.031,-0.013,-0.018,0.029,0.044,0.063,0.038,0.025,0.019,0.012
'0:00.226',-0.008,0.022,0.029,-0.007,-0.019,0.026,0.037,0.059,0.034,0.016,0.016,0.012
'0:00.227',-0.013,0.016,0.028,-0.001,-0.021,0.022,0.037,0.050,0.031,0.006,0.012,0.006
'0:00.228',-0.014,0.012,0.027,0.001,-0.021,0.019,0.037,0.047,0.019,0.000,0.009,0.003
'0:00.229',-0.013,0.012,0.025,0.000,-0.019,0.019,0.037,0.044,0.012,0.000,0.000,-0.006
'0:00.230',-0.009,0.016,0.025,-0.003,-0.018,0.020,0.044,0.034,0.009,-0.006,-0.006,-0.003
'0:00.231',-0.006,0.016,0.022,-0.004,-0.014,0.019,0.044,0.025,0.000,-0.019,-0.012,-0.012
'0:00.232',-0.009,0.012,0.022,-0.001,-0.016,0.017,0.034,0.022,-0.003,-0.019,-0.012,-0.012
'0:00.233',-0.009,0.009,0.019,0.000,-0.014,0.014,0.037,0.019,-0.012,-0.025,-0.019,-0.012
'0:00.234',-0.013,0.008,0.021,0.002,-0.017,0.014,0.034,0.009,-0.019,-0.028,-0.019,-0.016
'0:00.235',-0.019,0.003,0.022,0.008,-0.021,0.012,0.037,0.000,-0.019,-0.031,-0.019,-0.012
'0:00.236',-0.022,0.000,0.022,0.011,-0.022,0.011,0.041,-0.003,-0.025,-0.028,-0.022,-0.016
'0:00.237',-0.025,-0.003,0.022,0.014,-0.024,0.009,0.037,-0.006,-0.025,-0.025,-0.025,-0.012
'0:00.238',-0.022,-0.009,0.012,0.016,-0.018,0.001,0.034,-0.012,-0.034,-0.037,-0.028,-0.022
'0:00.239',-0.022,-0.009,0.012,0.016,-0.018,0.001,0.031,-0.019,-0.037,-0.044,-0.025,-0.025
'0:00.240',-0.022,-0.006,0.016,0.014,-0.019,0.004,0.031,-0.019,-0.044,-0.041,-0.028,-0.025
'0:00.241',-0.025,-0.009,0.016,0.018,-0.021,0.003,0.031,-0.025,-0.044,-0.044,-0.031,-0.019
'0:00.242',-0.022,-0.012,0.009,0.018,-0.016,-0.002,0.034,-0.031,-0.047,-0.044,-0.031,-0.022
'0:00.243',-0.022,-0.016,0.006,0.019,-0.014,-0.005,0.037,-0.031,-0.044,-0.044,-0.031,-0.025
'0:00.244',-0.021,-0.019,0.002,0.020,-0.011,-0.009,0.034,-0.028,-0.056,-0.053,-0.041,-0.031
'0:00.245',-0.019,-0.019,0.000,0.019,-0.009,-0.009,0.031,-0.031,-0.062,-0.056,-0.044,-0.031
'0:00.246',-0.023,-0.019,0.004,0.021,-0.014,-0.008,0.031,-0.031,-0.056,-0.050,-0.038,-0.028
'0:00.247',-0.025,-0.019,0.006,0.022,-0.016,-0.006,0.031,-0.038,-0.062,-0.056,-0.038,-0.031
'0:00.248',-0.029,-0.017,0.012,0.024,-0.021,-0.003,0.028,-0.038,-0.062,-0.059,-0.041,-0.034
'0:00.249',-0.031,-0.022,0.009,0.027,-0.021,-0.006,0.025,-0.044,-0.069,-0.062,-0.044,-0.031
'0:00.250',-0.030,-0.023,0.007,0.027,-0.019,-0.008,0.031,-0.038,-0.069,-0.062,-0.047,-0.031
'0:00.251',-0.028,-0.028,0.000,0.028,-0.014,-0.014,0.031,-0.044,-0.069,-0.062,-0.044,-0.038
'0:00.252',-0.028,-0.025,0.003,0.027,-0.016,-0.011,0.022,-0.047,-0.069,-0.059,-0.047,-0.044
'0:00.253',-0.025,-0.022,0.003,0.024,-0.014,-0.009,0.025,-0.050,-0.069,-0.062,-0.050,-0.044
'0:00.254',-0.028,-0.022,0.006,0.025,-0.018,-0.008,0.019,-0.047,-0.072,-0.069,-0.047,-0.041
'0:00.255',-0.028,-0.022,0.006,0.025,-0.018,-0.008,0.019,-0.050,-0.069,-0.069,-0.044,-0.038
'0:00.256',-0.029,-0.026,0.003,0.028,-0.016,-0.012,0.028,-0.050,-0.069,-0.069,-0.047,-0.044
'0:00.257',-0.031,-0.031,0.000,0.031,-0.016,-0.016,0.031,-0.056,-0.069,-0.069,-0.050,-0.044
'0:00.258',-0.031,-0.033,-0.002,0.032,-0.015,-0.017,0.031,-0.059,-0.072,-0.066,-0.047,-0.041
'0:00.259',-0.034,-0.034,0.000,0.034,-0.018,-0.017,0.031,-0.062,-0.075,-0.069,-0.044,-0.044
'0:00.260',-0.033,-0.033,0.000,0.033,-0.017,-0.017,0.034,-0.056,-0.075,-0.069,-0.047,-0.041
'0:00.261',-0.034,-0.034,0.000,0.034,-0.018,-0.017,0.031,-0.056,-0.075,-0.069,-0.044,-0.044
'0:00.262',-0.033,-0.031,0.002,0.032,-0.018,-0.015,0.031,-0.059,-0.081,-0.072,-0.050,-0.044
'0:00.263',-0.037,-0.031,0.006,0.034,-0.022,-0.012,0.031,-0.062,-0.081,-0.069,-0.050,-0.044
'0:00.264',-0.039,-0.036,0.003,0.038,-0.021,-0.017,0.031,-0.056,-0.078,-0.072,-0.047,-0.044
'0:00.265',-0.037,-0.034,0.003,0.036,-0.021,-0.016,0.037,-0.056,-0.081,-0.069,-0.050,-0.044
'0:00.266',-0.036,-0.030,0.006,0.033,-0.021,-0.012,0.037,-0.053,-0.081,-0.072,-0.050,-0.047
'0:00.267',-0.034,-0.028,0.006,0.031,-0.021,-0.011,0.037,-0.056,-0.081,-0.075,-0.056,-0.044
'0:00.268',-0.033,-0.031,0.002,0.032,-0.018,-0.015,0.031,-0.059,-0.081,-0.078,-0.053,-0.044
'0:00.269',-0.034,-0.031,0.003,0.033,-0.019,-0.014,0.037,-0.062,-0.087,-0.075,-0.050,-0.044
'0:00.270',-0.033,-0.033,0.000,0.033,-0.017,-0.017,0.034,-0.062,-0.087,-0.075,-0.056,-0.047
'0:00.271',-0.031,-0.031,0.000,0.031,-0.016,-0.016,0.037,-0.062,-0.094,-0.075,-0.056,-0.044
'0:00.272',-0.031,-0.030,0.001,0.031,-0.016,-0.014,0.034,-0.059,-0.087,-0.078,-0.056,-0.047
'0:00.273',-0.034,-0.031,0.003,0.033,-0.019,-0.014,0.031,-0.056,-0.087,-0.075,-0.050,-0.044
'0:00.274',-0.033,-0.030,0.003,0.032,-0.018,-0.014,0.031,-0.062,-0.087,-0.078,-0.056,-0.050
'0:00.275',-0.034,-0.031,0.003,0.033,-0.019,-0.014,0.031,-0.062,-0.081,-0.075,-0.062,-0.044
'0:00.276',-0.033,-0.031,0.002,0.032,-0.018,-0.015,0.031,-0.066,-0.084,-0.078,-0.056,-0.050
'0:00.277',-0.031,-0.034,-0.003,0.033,-0.014,-0.019,0.031,-0.069,-0.087,-0.081,-0.062,-0.050
'0:00.278',-0.034,-0.033,0.001,0.034,-0.018,-0.016,0.031,-0.075,-0.091,-0.078,-0.069,-0.053
'0:00.279',-0.034,-0.034,0.000,0.034,-0.018,-0.017,0.031,-0.075,-0.094,-0.081,-0.062,-0.050
'0:00.280',-0.034,-0.036,-0.002,0.036,-0.016,-0.019,0.031,-0.075,-0.094,-0.081,-0.059,-0.053
'0:00.281',-0.034,-0.034,0.000,0.034,-0.018,-0.017,0.031,-0.069,-0.094,-0.081,-0.062,-0.056
'0:00.282',-0.031,-0.031,0.000,0.031,-0.016,-0.016,0.034,-0.075,-0.097,-0.081,-0.059,-0.053
'0:00.283',-0.034,-0.031,0.003,0.033,-0.019,-0.014,0.037,-0.075,-0.094,-0.087,-0.056,-0.050
'0:00.284',-0.037,-0.033,0.004,0.036,-0.021,-0.014,0.034,-0.069,-0.091,-0.081,-0.062,-0.047
'0:00.285',-0.037,-0.034,0.003,0.036,-0.021,-0.016,0.031,-0.069,-0.094,-0.081,-0.062,-0.050
'0:00.286',-0.033,-0.033,0.000,0.033,-0.017,-0.017,0.031,-0.072,-0.097,-0.084,-0.059,-0.050
'0:00.287',-0.031,-0.034,-0.003,0.033,-0.014,-0.019,0.031,-0.075,-0.100,-0.087,-0.056,-0.050
'0:00.288',-0.033,-0.034,-0.002,0.034,-0.016,-0.018,0.031,-0.072,-0.103,-0.087,-0.062,-0.050
'0:00.289',-0.031,-0.034,-0.003,0.033,-0.014,-0.019,0.031,-0.075,-0.106,-0.087,-0.062,-0.050
'0:00.290',-0.031,-0.033,-0.002,0.032,-0.015,-0.017,0.031,-0.075,-0.103,-0.087,-0.062,-0.050
'0:00.291',-0.034,-0.034,0.000,0.034,-0.018,-0.017,0.031,-0.075,-0.100,-0.087,-0.062,-0.050
'0:00.292',-0.034,-0.034,0.000,0.034,-0.018,-0.017,0.031,-0.081,-0.097,-0.094,-0.066,-0.050
'0:00.293',-0.031,-0.034,-0.003,0.033,-0.014,-0.019,0.031,-0.081,-0.094,-0.094,-0.069,-0.050
'0:00.294',-0.031,-0.037,-0.006,0.034,-0.013,-0.022,0.031,-0.081,-0.094,-0.091,-0.066,-0.047
'0:00.295',-0.037,-0.041,-0.003,0.039,-0.018,-0.022,0.031,-0.081,-0.094,-0.087,-0.062,-0.050
'0:00.296',-0.034,-0.037,-0.003,0.036,-0.016,-0.021,0.028,-0.084,-0.097,-0.094,-0.062,-0.050
'0:00.297',-0.034,-0.034,0.000,0.034,-0.018,-0.017,0.025,-0.081,-0.100,-0.087,-0.062,-0.050
'0:00.298',-0.036,-0.037,-0.002,0.037,-0.017,-0.020,0.025,-0.072,-0.100,-0.087,-0.059,-0.044
'0:00.299',-0.034,-0.034,0.000,0.034,-0.018,-0.017,0.025,-0.075,-0.106,-0.094,-0.062,-0.044
'0:00.300',-0.031,-0.033,-0.002,0.032,-0.015,-0.017,0.025,-0.078,-0.106,-0.094,-0.062,-0.044
'0:00.301',-0.031,-0.034,-0.003,0.033,-0.014,-0.019,0.025,-0.081,-0.106,-0.094,-0.062,-0.050
'0:00.302',-0.033,-0.034,-0.002,0.034,-0.016,-0.018,0.028,-0.078,-0.106,-0.094,-0.062,-0.050
'0:00.303',-0.034,-0.034,0.000,0.034,-0.018,-0.017,0.025,-0.075,-0.106,-0.094,-0.062,-0.050
'0:00.304',-0.034,-0.041,-0.006,0.037,-0.014,-0.024,0.028,-0.078,-0.112,-0.100,-0.066,-0.047
'0:00.305',-0.034,-0.044,-0.009,0.039,-0.013,-0.027,0.025,-0.081,-0.106,-0.094,-0.069,-0.044
'0:00.306',-0.036,-0.044,-0.007,0.040,-0.014,-0.026,0.028,-0.078,-0.106,-0.100,-0.066,-0.047
'0:00.307',-0.034,-0.044,-0.009,0.039,-0.013,-0.027,0.031,-0.081,-0.106,-0.100,-0.069,-0.050
'0:00.308',-0.033,-0.042,-0.010,0.037,-0.011,-0.026,0.031,-0.084,-0.106,-0.097,-0.069,-0.050
'0:00.309',-0.034,-0.041,-0.006,0.037,-0.014,-0.024,0.031,-0.081,-0.106,-0.100,-0.075,-0.050
'0:00.310',-0.033,-0.039,-0.006,0.036,-0.014,-0.023,0.028,-0.081,-0.106,-0.106,-0.075,-0.050
'0:00.311',-0.031,-0.041,-0.009,0.036,-0.011,-0.025,0.025,-0.081,-0.106,-0.100,-0.075,-0.050
'0:00.312',-0.033,-0.036,-0.003,0.035,-0.015,-0.020,0.025,-0.091,-0.109,-0.100,-0.078,-0.053
'0:00.313',-0.031,-0.034,-0.003,0.033,-0.014,-0.019,0.025,-0.088,-0.112,-0.100,-0.075,-0.056
'0:00.314',-0.027,-0.034,-0.007,0.031,-0.010,-0.021,0.025,-0.084,-0.119,-0.103,-0.078,-0.059
'0:00.315',-0.028,-0.034,-0.006,0.031,-0.011,-0.021,0.025,-0.081,-0.119,-0.100,-0.075,-0.063
'0:00.316',-0.031,-0.033,-0.002,0.032,-0.015,-0.017,0.025,-0.088,-0.122,-0.100,-0.075,-0.063
'0:00.317',-0.034,-0.034,0.000,0.034,-0.018,-0.017,0.025,-0.088,-0.125,-0.100,-0.075,-0.063
'0:00.318',-0.042,-0.042,0.000,0.042,-0.021,-0.021,0.028,-0.084,-0.122,-0.100,-0.081,-0.056
'0:00.319',-0.047,-0.047,0.000,0.047,-0.024,-0.024,0.031,-0.081,-0.119,-0.100,-0.081,-0.050
'0:00.320',-0.041,-0.045,-0.004,0.043,-0.018,-0.025,0.028,-0.084,-0.119,-0.100,-0.075,-0.053
'0:00.321',-0.037,-0.047,-0.009,0.042,-0.014,-0.028,0.025,-0.088,-0.119,-0.100,-0.075,-0.056
'0:00.322',-0.036,-0.044,-0.007,0.040,-0.014,-0.026,0.028,-0.088,-0.119,-0.100,-0.075,-0.059
'0:00.323',-0.034,-0.044,-0.009,0.039,-0.013,-0.027,0.031,-0.088,-0.119,-0.100,-0.075,-0.063
'0:00.324',-0.036,-0.044,-0.007,0.040,-0.014,-0.026,0.034,-0.091,-0.119,-0.103,-0.075,-0.066
'0:00.325',-0.034,-0.041,-0.006,0.037,-0.014,-0.024,0.037,-0.094,-0.119,-0.106,-0.075,-0.069
'0:00.326',-0.033,-0.048,-0.016,0.041,-0.009,-0.032,0.034,-0.094,-0.119,-0.112,-0.075,-0.066
'0:00.327',-0.034,-0.050,-0.016,0.042,-0.009,-0.033,0.031,-0.094,-0.119,-0.112,-0.075,-0.063
'0:00.328',-0.034,-0.046,-0.011,0.040,-0.012,-0.029,0.028,-0.097,-0.125,-0.116,-0.084,-0.063
'0:00.329',-0.034,-0.050,-0.016,0.042,-0.009,-0.033,0.025,-0.100,-0.119,-0.112,-0.081,-0.063
'0:00.330',-0.039,-0.050,-0.011,0.044,-0.014,-0.031,0.022,-0.103,-0.125,-0.112,-0.078,-0.063
'0:00.331',-0.044,-0.050,-0.006,0.047,-0.019,-0.028,0.019,-0.100,-0.125,-0.112,-0.075,-0.063
'0:00.332',-0.043,-0.050,-0.007,0.046,-0.018,-0.029,0.022,-0.100,-0.125,-0.112,-0.081,-0.063
'0:00.333',-0.044,-0.047,-0.003,0.046,-0.021,-0.025,0.025,-0.100,-0.125,-0.119,-0.081,-0.063
'0:00.334',-0.043,-0.050,-0.007,0.046,-0.018,-0.029,0.025,-0.100,-0.128,-0.119,-0.078,-0.063
'0:00.335',-0.041,-0.050,-0.009,0.046,-0.016,-0.030,0.025,-0.100,-0.131,-0.119,-0.081,-0.063
'0:00.336',-0.037,-0.050,-0.013,0.044,-0.013,-0.031,0.025,-0.100,-0.128,-0.119,-0.081,-0.063
'0:00.337',-0.041,-0.053,-0.013,0.047,-0.014,-0.033,0.025,-0.100,-0.125,-0.119,-0.087,-0.063
'0:00.338',-0.039,-0.050,-0.011,0.045,-0.014,-0.031,0.028,-0.103,-0.131,-0.119,-0.081,-0.063
'0:00.339',-0.034,-0.053,-0.019,0.044,-0.008,-0.036,0.031,-0.106,-0.137,-0.119,-0.081,-0.063
'0:00.340',-0.037,-0.053,-0.016,0.046,-0.011,-0.034,0.031,-0.112,-0.141,-0.119,-0.081,-0.063
'0:00.341',-0.037,-0.053,-0.016,0.046,-0.011,-0.034,0.031,-0.106,-0.144,-0.119,-0.081,-0.063
'0:00.342',-0.036,-0.050,-0.014,0.043,-0.011,-0.033,0.028,-0.109,-0.144,-0.119,-0.078,-0.059
'0:00.343',-0.037,-0.050,-0.013,0.044,-0.013,-0.031,0.025,-0.119,-0.144,-0.119,-0.081,-0.056
'0:00.344',-0.037,-0.054,-0.017,0.046,-0.011,-0.036,0.025,-0.119,-0.150,-0.122,-0.081,-0.059
'0:00.345',-0.041,-0.056,-0.016,0.049,-0.013,-0.036,0.025,-0.119,-0.150,-0.119,-0.081,-0.063
'0:00.346',-0.042,-0.057,-0.016,0.050,-0.013,-0.037,0.025,-0.122,-0.153,-0.119,-0.081,-0.063
'0:00.347',-0.041,-0.059,-0.019,0.050,-0.011,-0.039,0.025,-0.125,-0.156,-0.119,-0.081,-0.069
'0:00.348',-0.039,-0.058,-0.019,0.049,-0.011,-0.039,0.025,-0.125,-0.153,-0.122,-0.091,-0.066
'0:00.349',-0.037,-0.056,-0.019,0.047,-0.009,-0.037,0.025,-0.125,-0.150,-0.125,-0.087,-0.063
'0:00.350',-0.033,-0.052,-0.019,0.042,-0.008,-0.036,0.028,-0.125,-0.156,-0.131,-0.094,-0.069
'0:00.351',-0.031,-0.047,-0.016,0.039,-0.008,-0.031,0.031,-0.125,-0.156,-0.137,-0.100,-0.069
'0:00.352',-0.028,-0.047,-0.019,0.037,-0.005,-0.033,0.031,-0.125,-0.159,-0.141,-0.097,-0.069
'0:00.353',-0.031,-0.047,-0.016,0.039,-0.008,-0.031,0.031,-0.131,-0.163,-0.137,-0.100,-0.069
'0:00.354',-0.033,-0.047,-0.014,0.040,-0.009,-0.031,0.031,-0.131,-0.163,-0.137,-0.100,-0.072
'0:00.355',-0.031,-0.050,-0.019,0.041,-0.006,-0.034,0.031,-0.131,-0.163,-0.137,-0.100,-0.069
'0:00.356',-0.037,-0.053,-0.016,0.046,-0.011,-0.034,0.031,-0.134,-0.163,-0.137,-0.100,-0.069
'0:00.357',-0.041,-0.056,-0.016,0.049,-0.013,-0.036,0.031,-0.137,-0.163,-0.137,-0.100,-0.069
'0:00.358',-0.044,-0.064,-0.020,0.054,-0.012,-0.042,0.028,-0.134,-0.163,-0.137,-0.091,-0.072
'0:00.359',-0.047,-0.066,-0.019,0.056,-0.014,-0.042,0.025,-0.137,-0.169,-0.137,-0.094,-0.075
'0:00.360',-0.045,-0.067,-0.022,0.056,-0.012,-0.044,0.025,-0.137,-0.166,-0.144,-0.097,-0.075
'0:00.361',-0.047,-0.069,-0.022,0.058,-0.013,-0.046,0.025,-0.137,-0.163,-0.137,-0.100,-0.075
'0:00.362',-0.047,-0.067,-0.021,0.057,-0.013,-0.044,0.025,-0.137,-0.159,-0.141,-0.100,-0.078
'0:00.363',-0.050,-0.066,-0.016,0.058,-0.018,-0.041,0.025,-0.137,-0.163,-0.144,-0.100,-0.081
'0:00.364',-0.046,-0.064,-0.019,0.055,-0.014,-0.042,0.025,-0.137,-0.163,-0.150,-0.100,-0.081
'0:00.365',-0.047,-0.066,-0.019,0.056,-0.014,-0.042,0.025,-0.137,-0.163,-0.150,-0.100,-0.081
'0:00.366',-0.047,-0.066,-0.019,0.056,-0.014,-0.042,0.025,-0.137,-0.169,-0.153,-0.100,-0.081
'0:00.367',-0.047,-0.066,-0.019,0.056,-0.014,-0.042,0.025,-0.137,-0.175,-0.156,-0.100,-0.081
'0:00.368',-0.041,-0.064,-0.024,0.053,-0.009,-0.044,0.025,-0.144,-0.175,-0.153,-0.106,-0.081
'0:00.369',-0.037,-0.066,-0.028,0.052,-0.005,-0.047,0.025,-0.144,-0.175,-0.156,-0.106,-0.081
'0:00.370',-0.036,-0.066,-0.030,0.051,-0.003,-0.048,0.028,-0.147,-0.175,-0.156,-0.106,-0.081
'0:00.371',-0.037,-0.066,-0.028,0.052,-0.005,-0.047,0.031,-0.150,-0.175,-0.156,-0.106,-0.081
'0:00.372',-0.042,-0.067,-0.025,0.054,-0.009,-0.046,0.034,-0.150,-0.172,-0.153,-0.106,-0.081
'0:00.373',-0.047,-0.069,-0.022,0.058,-0.013,-0.046,0.037,-0.150,-0.175,-0.150,-0.106,-0.081
'0:00.374',-0.048,-0.072,-0.024,0.060,-0.013,-0.048,0.034,-0.153,-0.178,-0.159,-0.109,-0.078
'0:00.375',-0.050,-0.072,-0.022,0.061,-0.014,-0.047,0.037,-0.150,-0.187,-0.162,-0.112,-0.075
'0:00.376',-0.043,-0.072,-0.029,0.057,-0.007,-0.051,0.031,-0.153,-0.191,-0.156,-0.116,-0.084
'0:00.377',-0.034,-0.069,-0.034,0.052,0.000,-0.052,0.031,-0.156,-0.194,-0.162,-0.119,-0.087
'0:00.378',-0.037,-0.067,-0.030,0.053,-0.004,-0.049,0.031,-0.156,-0.197,-0.162,-0.119,-0.087
'0:00.379',-0.037,-0.066,-0.028,0.052,-0.005,-0.047,0.031,-0.156,-0.194,-0.162,-0.119,-0.087
'0:00.380',-0.041,-0.067,-0.026,0.054,-0.008,-0.047,0.028,-0.153,-0.197,-0.162,-0.116,-0.087
'0:00.381',-0.044,-0.069,-0.025,0.056,-0.009,-0.047,0.025,-0.156,-0.194,-0.162,-0.119,-0.087
'0:00.382',-0.043,-0.071,-0.028,0.057,-0.008,-0.049,0.025,-0.159,-0.191,-0.169,-0.122,-0.091
'0:00.383',-0.041,-0.069,-0.028,0.055,-0.006,-0.049,0.025,-0.162,-0.187,-0.175,-0.119,-0.087
'0:00.384',-0.037,-0.070,-0.033,0.054,-0.003,-0.051,0.025,-0.162,-0.194,-0.172,-0.125,-0.094
'0:00.385',-0.041,-0.072,-0.031,0.056,-0.005,-0.052,0.025,-0.169,-0.194,-0.175,-0.125,-0.094
'0:00.386',-0.039,-0.072,-0.033,0.056,-0.003,-0.053,0.028,-0.166,-0.194,-0.175,-0.125,-0.097
'0:00.387',-0.041,-0.075,-0.034,0.058,-0.003,-0.055,0.031,-0.169,-0.194,-0.181,-0.125,-0.100
'0:00.388',-0.042,-0.075,-0.033,0.059,-0.004,-0.054,0.031,-0.162,-0.200,-0.175,-0.125,-0.097
'0:00.389',-0.044,-0.075,-0.031,0.059,-0.006,-0.053,0.031,-0.162,-0.200,-0.175,-0.125,-0.094
'0:00.390',-0.046,-0.075,-0.029,0.061,-0.008,-0.053,0.028,-0.162,-0.197,-0.184,-0.128,-0.100
'0:00.391',-0.044,-0.075,-0.031,0.059,-0.006,-0.053,0.031,-0.162,-0.194,-0.181,-0.125,-0.100
'0:00.392',-0.044,-0.078,-0.034,0.061,-0.005,-0.056,0.031,-0.159,-0.197,-0.184,-0.125,-0.100
'0:00.393',-0.044,-0.081,-0.037,0.063,-0.003,-0.059,0.031,-0.162,-0.200,-0.181,-0.125,-0.094
'0:00.394',-0.045,-0.082,-0.037,0.064,-0.004,-0.060,0.034,-0.156,-0.197,-0.181,-0.122,-0.097
'0:00.395',-0.047,-0.084,-0.037,0.066,-0.005,-0.061,0.031,-0.162,-0.200,-0.181,-0.125,-0.100
'0:00.396',-0.043,-0.086,-0.044,0.064,0.001,-0.065,0.025,-0.162,-0.200,-0.181,-0.119,-0.097
'0:00.397',-0.037,-0.081,-0.044,0.059,0.003,-0.062,0.025,-0.162,-0.200,-0.181,-0.119,-0.100
'0:00.398',-0.036,-0.081,-0.046,0.059,0.005,-0.064,0.025,-0.169,-0.197,-0.184,-0.125,-0.100
'0:00.399',-0.041,-0.081,-0.041,0.061,0.000,-0.061,0.025,-0.169,-0.194,-0.175,-0.125,-0.100
'0:00.400',-0.041,-0.083,-0.042,0.062,0.001,-0.063,0.025,-0.169,-0.197,-0.181,-0.125,-0.100
'0:00.401',-0.041,-0.081,-0.041,0.061,0.000,-0.061,0.025,-0.169,-0.200,-0.181,-0.125,-0.100
'0:00.402',-0.042,-0.086,-0.044,0.064,0.001,-0.065,0.025,-0.172,-0.197,-0.181,-0.128,-0.100
'0:00.403',-0.044,-0.088,-0.044,0.066,0.000,-0.066,0.025,-0.175,-0.200,-0.181,-0.125,-0.100
'0:00.404',-0.043,-0.091,-0.048,0.067,0.003,-0.069,0.025,-0.172,-0.203,-0.184,-0.131,-0.100
'0:00.405',-0.041,-0.091,-0.050,0.066,0.004,-0.071,0.025,-0.175,-0.206,-0.194,-0.131,-0.100
'0:00.406',-0.044,-0.089,-0.046,0.067,0.001,-0.067,0.025,-0.175,-0.212,-0.197,-0.128,-0.100
'0:00.407',-0.044,-0.088,-0.044,0.066,0.000,-0.066,0.025,-0.175,-0.212,-0.200,-0.125,-0.100
'0:00.408',-0.045,-0.086,-0.041,0.066,-0.002,-0.064,0.025,-0.178,-0.209,-0.200,-0.125,-0.106
'0:00.409',-0.044,-0.088,-0.044,0.066,0.000,-0.066,0.025,-0.181,-0.206,-0.200,-0.131,-0.106
'0:00.410',-0.044,-0.084,-0.041,0.064,-0.002,-0.062,0.022,-0.181,-0.216,-0.200,-0.137,-0.103
'0:00.411',-0.044,-0.088,-0.044,0.066,0.000,-0.066,0.019,-0.187,-0.212,-0.200,-0.137,-0.106
'0:00.412',-0.045,-0.091,-0.046,0.068,0.000,-0.068,0.019,-0.187,-0.216,-0.197,-0.137,-0.103
'0:00.413',-0.050,-0.094,-0.044,0.072,-0.003,-0.069,0.019,-0.187,-0.219,-0.194,-0.137,-0.100
'0:00.414',-0.051,-0.093,-0.041,0.072,-0.005,-0.067,0.019,-0.191,-0.225,-0.191,-0.141,-0.103
'0:00.415',-0.050,-0.091,-0.041,0.071,-0.005,-0.066,0.019,-0.194,-0.225,-0.194,-0.137,-0.100
'0:00.416',-0.050,-0.088,-0.037,0.069,-0.006,-0.062,0.012,-0.194,-0.222,-0.194,-0.134,-0.100
'0:00.417',-0.053,-0.088,-0.034,0.071,-0.009,-0.061,0.012,-0.194,-0.219,-0.194,-0.131,-0.100
'0:00.418',-0.050,-0.088,-0.037,0.069,-0.006,-0.062,0.022,-0.200,-0.222,-0.194,-0.137,-0.100
'0:00.419',-0.050,-0.088,-0.037,0.069,-0.006,-0.062,0.025,-0.200,-0.219,-0.194,-0.137,-0.100
'0:00.420',-0.049,-0.091,-0.042,0.070,-0.004,-0.066,0.019,-0.197,-0.219,-0.197,-0.137,-0.100
'0:00.421',-0.047,-0.088,-0.041,0.067,-0.003,-0.064,0.019,-0.194,-0.219,-0.206,-0.137,-0.100
'0:00.422',-0.048,-0.088,-0.039,0.068,-0.004,-0.064,0.016,-0.197,-0.222,-0.197,-0.141,-0.100
'0:00.423',-0.053,-0.091,-0.037,0.072,-0.008,-0.064,0.019,-0.200,-0.225,-0.194,-0.144,-0.100
'0:00.424',-0.053,-0.094,-0.041,0.074,-0.006,-0.067,0.022,-0.197,-0.225,-0.200,-0.134,-0.100
'0:00.425',-0.050,-0.094,-0.044,0.072,-0.003,-0.069,0.019,-0.200,-0.225,-0.200,-0.137,-0.100
'0:00.426',-0.049,-0.094,-0.045,0.071,-0.002,-0.069,0.016,-0.194,-0.228,-0.200,-0.137,-0.097
'0:00.427',-0.047,-0.094,-0.047,0.071,0.000,-0.071,0.012,-0.200,-0.231,-0.200,-0.137,-0.100
'0:00.428',-0.050,-0.093,-0.042,0.071,-0.004,-0.067,0.019,-0.203,-0.231,-0.203,-0.141,-0.100
'0:00.429',-0.050,-0.091,-0.041,0.071,-0.005,-0.066,0.012,-0.206,-0.231,-0.206,-0.144,-0.100
'0:00.430',-0.050,-0.091,-0.041,0.071,-0.005,-0.066,0.019,-0.203,-0.234,-0.206,-0.147,-0.100
'0:00.431',-0.050,-0.091,-0.041,0.071,-0.005,-0.066,0.019,-0.200,-0.231,-0.206,-0.150,-0.100
'0:00.432',-0.050,-0.088,-0.037,0.069,-0.006,-0.062,0.019,-0.197,-0.231,-0.203,-0.147,-0.097
'0:00.433',-0.050,-0.088,-0.037,0.069,-0.006,-0.062,0.019,-0.194,-0.231,-0.206,-0.144,-0.106
'0:00.434',-0.050,-0.088,-0.037,0.069,-0.006,-0.062,0.016,-0.200,-0.228,-0.206,-0.147,-0.106
'0:00.435',-0.050,-0.088,-0.037,0.069,-0.006,-0.062,0.019,-0.200,-0.231,-0.206,-0.144,-0.106
'0:00.436',-0.047,-0.091,-0.044,0.069,-0.002,-0.067,0.019,-0.197,-0.231,-0.203,-0.144,-0.109
'0:00.437',-0.047,-0.094,-0.047,0.071,0.000,-0.071,0.019,-0.194,-0.231,-0.206,-0.144,-0.112
'0:00.438',-0.050,-0.097,-0.047,0.074,-0.002,-0.072,0.016,-0.197,-0.231,-0.200,-0.144,-0.109
'0:00.439',-0.050,-0.097,-0.047,0.074,-0.002,-0.072,0.019,-0.200,-0.231,-0.200,-0.144,-0.106
'0:00.440',-0.050,-0.097,-0.047,0.074,-0.002,-0.072,0.022,-0.203,-0.228,-0.200,-0.147,-0.106
'0:00.441',-0.053,-0.100,-0.047,0.077,-0.003,-0.074,0.019,-0.206,-0.237,-0.206,-0.150,-0.106
'0:00.442',-0.053,-0.103,-0.050,0.078,-0.002,-0.077,0.019,-0.206,-0.237,-0.209,-0.147,-0.106
'0:00.443',-0.053,-0.103,-0.050,0.078,-0.002,-0.077,0.019,-0.206,-0.237,-0.206,-0.144,-0.106
'0:00.444',-0.053,-0.103,-0.050,0.078,-0.002,-0.077,0.019,-0.206,-0.241,-0.203,-0.141,-0.109
'0:00.445',-0.050,-0.097,-0.047,0.074,-0.002,-0.072,0.019,-0.206,-0.244,-0.206,-0.150,-0.112
'0:00.446',-0.051,-0.100,-0.049,0.076,-0.001,-0.074,0.016,-0.213,-0.250,-0.209,-0.147,-0.112
'0:00.447',-0.050,-0.100,-0.050,0.075,0.000,-0.075,0.012,-0.213,-0.244,-0.212,-0.144,-0.119
'0:00.448',-0.052,-0.101,-0.049,0.077,-0.001,-0.076,0.016,-0.209,-0.241,-0.212,-0.147,-0.106
'0:00.449',-0.050,-0.103,-0.053,0.077,0.001,-0.078,0.019,-0.206,-0.244,-0.212,-0.150,-0.106
'0:00.450',-0.054,-0.103,-0.049,0.079,-0.003,-0.076,0.022,-0.209,-0.244,-0.216,-0.153,-0.106
'0:00.451',-0.053,-0.103,-0.050,0.078,-0.002,-0.077,0.025,-0.213,-0.244,-0.219,-0.150,-0.106
'0:00.452',-0.054,-0.104,-0.050,0.079,-0.003,-0.078,0.022,-0.213,-0.244,-0.216,-0.147,-0.109
'0:00.453',-0.056,-0.106,-0.050,0.081,-0.003,-0.078,0.019,-0.213,-0.244,-0.219,-0.144,-0.112
'0:00.454',-0.052,-0.105,-0.053,0.079,0.001,-0.079,0.019,-0.213,-0.244,-0.222,-0.147,-0.112
'0:00.455',-0.053,-0.106,-0.053,0.080,0.000,-0.080,0.019,-0.213,-0.244,-0.219,-0.150,-0.112
'0:00.456',-0.053,-0.103,-0.050,0.078,-0.002,-0.077,0.019,-0.209,-0.244,-0.219,-0.150,-0.116
'0:00.457',-0.053,-0.103,-0.050,0.078,-0.002,-0.077,0.019,-0.206,-0.244,-0.225,-0.150,-0.119
'0:00.458',-0.050,-0.106,-0.056,0.078,0.003,-0.081,0.019,-0.206,-0.241,-0.225,-0.150,-0.119
'0:00.459',-0.050,-0.106,-0.056,0.078,0.003,-0.081,0.019,-0.206,-0.244,-0.225,-0.150,-0.119
'0:00.460',-0.051,-0.106,-0.055,0.079,0.002,-0.081,0.019,-0.206,-0.241,-0.225,-0.150,-0.119
'0:00.461',-0.053,-0.106,-0.053,0.080,0.000,-0.080,0.019,-0.206,-0.237,-0.225,-0.150,-0.119
'0:00.462',-0.050,-0.105,-0.055,0.077,0.003,-0.080,0.019,-0.213,-0.241,-0.222,-0.150,-0.119
'0:00.463',-0.053,-0.106,-0.053,0.080,0.000,-0.080,0.019,-0.206,-0.237,-0.219,-0.150,-0.119
'0:00.464',-0.058,-0.105,-0.047,0.081,-0.005,-0.076,0.025,-0.209,-0.237,-0.222,-0.153,-0.119
'0:00.465',-0.059,-0.103,-0.044,0.081,-0.008,-0.074,0.019,-0.206,-0.244,-0.225,-0.156,-0.119
'0:00.466',-0.058,-0.106,-0.048,0.082,-0.005,-0.078,0.019,-0.209,-0.244,-0.222,-0.156,-0.116
'0:00.467',-0.056,-0.106,-0.050,0.081,-0.003,-0.078,0.019,-0.213,-0.244,-0.219,-0.156,-0.112
'0:00.468',-0.056,-0.105,-0.049,0.081,-0.004,-0.077,0.016,-0.203,-0.241,-0.219,-0.156,-0.116
'0:00.469',-0.056,-0.103,-0.047,0.080,-0.005,-0.075,0.012,-0.206,-0.237,-0.219,-0.156,-0.112
'0:00.470',-0.055,-0.106,-0.051,0.081,-0.002,-0.079,0.016,-0.209,-0.237,-0.225,-0.159,-0.112
'0:00.471',-0.056,-0.106,-0.050,0.081,-0.003,-0.078,0.019,-0.213,-0.237,-0.219,-0.150,-0.112
'0:00.472',-0.053,-0.109,-0.056,0.081,0.001,-0.083,0.019,-0.206,-0.237,-0.219,-0.153,-0.109
'0:00.473',-0.056,-0.109,-0.053,0.083,-0.002,-0.081,0.019,-0.206,-0.237,-0.219,-0.156,-0.112
'0:00.474',-0.052,-0.106,-0.054,0.079,0.001,-0.081,0.016,-0.206,-0.241,-0.219,-0.156,-0.109
'0:00.475',-0.044,-0.106,-0.063,0.075,0.009,-0.084,0.019,-0.206,-0.244,-0.225,-0.156,-0.106
'0:00.476',-0.043,-0.108,-0.065,0.075,0.011,-0.086,0.016,-0.216,-0.244,-0.222,-0.156,-0.112
'0:00.477',-0.041,-0.109,-0.069,0.075,0.014,-0.089,0.012,-0.213,-0.244,-0.219,-0.156,-0.106
'0:00.478',-0.045,-0.106,-0.061,0.076,0.008,-0.084,0.016,-0.209,-0.244,-0.222,-0.156,-0.103
'0:00.479',-0.047,-0.106,-0.059,0.077,0.006,-0.083,0.019,-0.206,-0.244,-0.219,-0.156,-0.106
'0:00.480',-0.048,-0.105,-0.057,0.077,0.004,-0.081,0.019,-0.213,-0.244,-0.222,-0.156,-0.106
'0:00.481',-0.050,-0.106,-0.056,0.078,0.003,-0.081,0.019,-0.213,-0.244,-0.219,-0.156,-0.106
'0:00.482',-0.051,-0.106,-0.055,0.079,0.002,-0.081,0.019,-0.209,-0.244,-0.219,-0.153,-0.106
'0:00.483',-0.053,-0.106,-0.053,0.080,0.000,-0.080,0.019,-0.206,-0.244,-0.219,-0.150,-0.106
'0:00.484',-0.051,-0.111,-0.059,0.081,0.004,-0.085,0.019,-0.206,-0.241,-0.219,-0.159,-0.106
'0:00.485',-0.053,-0.109,-0.056,0.081,0.001,-0.083,0.012,-0.206,-0.244,-0.225,-0.163,-0.106
'0:00.486',-0.053,-0.109,-0.056,0.081,0.001,-0.083,0.019,-0.206,-0.244,-0.228,-0.166,-0.109
'0:00.487',-0.053,-0.109,-0.056,0.081,0.001,-0.083,0.012,-0.206,-0.244,-0.225,-0.169,-0.112
'0:00.488',-0.053,-0.111,-0.058,0.082,0.002,-0.084,0.019,-0.200,-0.241,-0.225,-0.163,-0.109
'0:00.489',-0.050,-0.112,-0.063,0.081,0.006,-0.087,0.019,-0.200,-0.244,-0.225,-0.163,-0.106
'0:00.490',-0.050,-0.120,-0.070,0.085,0.010,-0.095,0.019,-0.200,-0.241,-0.219,-0.163,-0.109
'0:00.491',-0.050,-0.125,-0.075,0.088,0.013,-0.100,0.025,-0.200,-0.244,-0.219,-0.163,-0.112
'0:00.492',-0.047,-0.126,-0.079,0.087,0.016,-0.103,0.025,-0.206,-0.247,-0.222,-0.169,-0.119
'0:00.493',-0.047,-0.131,-0.084,0.089,0.019,-0.108,0.025,-0.213,-0.244,-0.219,-0.169,-0.119
'0:00.494',-0.044,-0.131,-0.088,0.088,0.022,-0.109,0.019,-0.213,-0.244,-0.228,-0.175,-0.122
'0:00.495',-0.037,-0.128,-0.091,0.083,0.026,-0.109,0.012,-0.213,-0.244,-0.225,-0.175,-0.125
'0:00.496',-0.036,-0.128,-0.093,0.082,0.028,-0.111,0.012,-0.209,-0.244,-0.228,-0.175,-0.122
'0:00.497',-0.034,-0.128,-0.094,0.081,0.029,-0.111,0.012,-0.213,-0.250,-0.225,-0.175,-0.125
'0:00.498',-0.033,-0.129,-0.096,0.081,0.031,-0.113,0.012,-0.209,-0.247,-0.228,-0.178,-0.122
'0:00.499',-0.031,-0.128,-0.097,0.080,0.033,-0.112,0.012,-0.213,-0.250,-0.225,-0.175,-0.125
'0:00.500',-0.030,-0.127,-0.097,0.079,0.033,-0.112,0.012,-0.219,-0.250,-0.228,-0.175,-0.119
'0:00.501',-0.028,-0.122,-0.094,0.075,0.033,-0.108,0.012,-0.219,-0.250,-0.225,-0.175,-0.125
'0:00.502',-0.025,-0.116,-0.091,0.071,0.033,-0.103,0.012,-0.216,-0.244,-0.225,-0.169,-0.119
'0:00.503',-0.019,-0.109,-0.091,0.064,0.036,-0.100,0.012,-0.213,-0.244,-0.225,-0.175,-0.125
'0:00.504',-0.021,-0.103,-0.082,0.062,0.031,-0.093,0.019,-0.200,-0.237,-0.219,-0.163,-0.116
'0:00.505',-0.019,-0.097,-0.078,0.058,0.029,-0.087,0.019,-0.194,-0.231,-0.212,-0.156,-0.112
'0:00.506',-0.019,-0.081,-0.063,0.050,0.022,-0.072,0.025,-0.184,-0.228,-0.206,-0.147,-0.106
'0:00.507',-0.019,-0.066,-0.047,0.042,0.014,-0.056,0.031,-0.175,-0.225,-0.200,-0.137,-0.106
'0:00.508',-0.014,-0.049,-0.034,0.032,0.010,-0.042,0.034,-0.172,-0.212,-0.194,-0.128,-0.097
'0:00.509',-0.009,-0.028,-0.019,0.019,0.004,-0.024,0.044,-0.169,-0.200,-0.187,-0.125,-0.094
'0:00.510',-0.005,-0.025,-0.020,0.015,0.008,-0.022,0.041,-0.162,-0.197,-0.184,-0.122,-0.087
'0:00.511',-0.003,-0.019,-0.016,0.011,0.006,-0.017,0.044,-0.150,-0.187,-0.175,-0.112,-0.075
'0:00.512',-0.003,-0.017,-0.014,0.010,0.005,-0.016,0.047,-0.150,-0.187,-0.175,-0.106,-0.075
'0:00.513',0.003,-0.009,-0.013,0.003,0.008,-0.011,0.050,-0.150,-0.187,-0.169,-0.106,-0.075
'0:00.514',0.002,-0.009,-0.011,0.004,0.006,-0.011,0.050,-0.144,-0.181,-0.169,-0.109,-0.072
'0:00.515',0.000,-0.009,-0.009,0.005,0.004,-0.009,0.044,-0.144,-0.181,-0.169,-0.106,-0.075
'0:00.516',0.004,-0.011,-0.015,0.003,0.009,-0.013,0.050,-0.147,-0.172,-0.169,-0.109,-0.069
'0:00.517',0.006,-0.012,-0.019,0.003,0.013,-0.016,0.044,-0.150,-0.169,-0.162,-0.106,-0.069
'0:00.518',0.009,-0.011,-0.020,0.001,0.014,-0.016,0.047,-0.144,-0.172,-0.162,-0.112,-0.066
'0:00.519',0.006,-0.016,-0.022,0.005,0.014,-0.019,0.050,-0.144,-0.175,-0.156,-0.112,-0.069
'0:00.520',0.005,-0.023,-0.028,0.009,0.016,-0.026,0.044,-0.147,-0.169,-0.159,-0.106,-0.069
'0:00.521',0.009,-0.028,-0.037,0.009,0.023,-0.033,0.044,-0.150,-0.169,-0.162,-0.106,-0.069
'0:00.522',0.020,-0.025,-0.045,0.002,0.033,-0.035,0.034,-0.147,-0.166,-0.156,-0.109,-0.069
'0:00.523',0.025,-0.025,-0.050,0.000,0.038,-0.037,0.025,-0.144,-0.169,-0.156,-0.106,-0.063
'0:00.524',0.022,-0.028,-0.050,0.003,0.036,-0.039,0.031,-0.137,-0.172,-0.156,-0.106,-0.063
'0:00.525',0.022,-0.028,-0.050,0.003,0.036,-0.039,0.031,-0.131,-0.169,-0.150,-0.100,-0.056
'0:00.526',0.026,-0.023,-0.049,-0.001,0.038,-0.036,0.028,-0.128,-0.166,-0.150,-0.094,-0.050
'0:00.527',0.025,-0.019,-0.044,-0.003,0.034,-0.031,0.019,-0.125,-0.163,-0.150,-0.094,-0.050
'0:00.528',0.022,-0.011,-0.033,-0.005,0.028,-0.022,0.022,-0.128,-0.163,-0.147,-0.084,-0.047
'0:00.529',0.022,-0.003,-0.025,-0.009,0.023,-0.014,0.019,-0.125,-0.156,-0.137,-0.075,-0.044
'0:00.530',0.022,0.004,-0.018,-0.013,0.019,-0.007,0.019,-0.122,-0.156,-0.141,-0.078,-0.041
'0:00.531',0.022,0.016,-0.006,-0.019,0.014,0.004,0.019,-0.119,-0.156,-0.137,-0.081,-0.044
'0:00.532',0.021,0.020,-0.001,-0.020,0.011,0.009,0.022,-0.122,-0.150,-0.134,-0.078,-0.044
'0:00.533',0.012,0.022,0.009,-0.017,0.001,0.016,0.025,-0.125,-0.150,-0.137,-0.075,-0.044
'0:00.534',0.008,0.026,0.018,-0.017,-0.005,0.022,0.034,-0.122,-0.150,-0.141,-0.075,-0.047
'0:00.535',0.006,0.028,0.022,-0.017,-0.008,0.025,0.037,-0.119,-0.150,-0.144,-0.075,-0.044
'0:00.536',0.005,0.023,0.018,-0.014,-0.007,0.021,0.034,-0.125,-0.159,-0.134,-0.078,-0.044
'0:00.537',0.003,0.025,0.022,-0.014,-0.009,0.023,0.037,-0.131,-0.163,-0.137,-0.081,-0.044
'0:00.538',0.000,0.024,0.024,-0.012,-0.012,0.024,0.037,-0.134,-0.159,-0.137,-0.081,-0.041
'0:00.539',-0.003,0.025,0.028,-0.011,-0.016,0.026,0.037,-0.137,-0.163,-0.137,-0.081,-0.038
'0:00.540',-0.006,0.026,0.033,-0.010,-0.019,0.029,0.041,-0.137,-0.159,-0.134,-0.084,-0.044
'0:00.541',-0.006,0.028,0.034,-0.011,-0.021,0.031,0.044,-0.137,-0.163,-0.137,-0.081,-0.044
'0:00.542',-0.006,0.025,0.031,-0.009,-0.019,0.028,0.037,-0.134,-0.163,-0.144,-0.081,-0.044
'0:00.543',-0.009,0.022,0.031,-0.006,-0.021,0.026,0.037,-0.137,-0.163,-0.144,-0.081,-0.044
'0:00.544',-0.013,0.014,0.027,-0.001,-0.020,0.021,0.037,-0.137,-0.163,-0.137,-0.078,-0.044
'0:00.545',-0.013,0.009,0.022,0.002,-0.018,0.016,0.037,-0.137,-0.169,-0.144,-0.075,-0.044
'0:00.546',-0.006,-0.001,0.005,0.004,-0.006,0.002,0.034,-0.137,-0.172,-0.150,-0.081,-0.044
'0:00.547',-0.003,-0.009,-0.006,0.006,0.001,-0.008,0.031,-0.137,-0.175,-0.156,-0.087,-0.044
'0:00.548',0.000,-0.009,-0.009,0.005,0.004,-0.009,0.034,-0.144,-0.172,-0.156,-0.087,-0.050
'0:00.549',0.000,-0.019,-0.019,0.009,0.009,-0.019,0.037,-0.150,-0.169,-0.156,-0.094,-0.050
'0:00.550',0.000,-0.022,-0.022,0.011,0.011,-0.022,0.031,-0.147,-0.178,-0.153,-0.094,-0.047
'0:00.551',0.000,-0.025,-0.025,0.012,0.013,-0.025,0.025,-0.150,-0.181,-0.156,-0.100,-0.050
'0:00.552',-0.003,-0.028,-0.025,0.016,0.011,-0.027,0.028,-0.153,-0.184,-0.150,-0.097,-0.056
'0:00.553',-0.003,-0.034,-0.031,0.019,0.014,-0.033,0.025,-0.156,-0.187,-0.156,-0.100,-0.063
'0:00.554',-0.008,-0.046,-0.037,0.027,0.014,-0.042,0.025,-0.162,-0.194,-0.162,-0.106,-0.063
'0:00.555',-0.009,-0.053,-0.044,0.031,0.017,-0.049,0.025,-0.162,-0.194,-0.162,-0.106,-0.056
'0:00.556',-0.006,-0.059,-0.053,0.033,0.023,-0.056,0.022,-0.169,-0.197,-0.166,-0.106,-0.059
'0:00.557',-0.009,-0.059,-0.050,0.034,0.020,-0.055,0.019,-0.175,-0.200,-0.169,-0.106,-0.063
'0:00.558',-0.011,-0.058,-0.047,0.035,0.018,-0.053,0.022,-0.172,-0.194,-0.172,-0.106,-0.063
'0:00.559',-0.009,-0.056,-0.047,0.033,0.019,-0.052,0.019,-0.181,-0.194,-0.169,-0.106,-0.063
'0:00.560',-0.006,-0.055,-0.049,0.031,0.021,-0.052,0.016,-0.181,-0.200,-0.175,-0.103,-0.053
'0:00.561',-0.003,-0.056,-0.053,0.030,0.025,-0.055,0.006,-0.187,-0.200,-0.175,-0.106,-0.050
'0:00.562',-0.005,-0.055,-0.050,0.030,0.023,-0.053,0.012,-0.191,-0.206,-0.181,-0.112,-0.056
'0:00.563',-0.006,-0.053,-0.047,0.030,0.020,-0.050,0.006,-0.187,-0.206,-0.181,-0.112,-0.063
'0:00.564',-0.017,-0.062,-0.046,0.040,0.014,-0.054,0.003,-0.191,-0.212,-0.184,-0.112,-0.059
'0:00.565',-0.022,-0.069,-0.047,0.046,0.013,-0.058,0.000,-0.187,-0.212,-0.181,-0.112,-0.063
'0:00.566',-0.026,-0.073,-0.047,0.050,0.010,-0.060,0.009,-0.191,-0.212,-0.184,-0.119,-0.066
'0:00.567',-0.031,-0.081,-0.050,0.056,0.009,-0.066,0.012,-0.194,-0.212,-0.187,-0.119,-0.069
'0:00.568',-0.034,-0.083,-0.049,0.059,0.007,-0.066,0.022,-0.197,-0.206,-0.191,-0.125,-0.069
'0:00.569',-0.037,-0.084,-0.047,0.061,0.004,-0.066,0.019,-0.200,-0.212,-0.194,-0.131,-0.075
'0:00.570',-0.039,-0.086,-0.047,0.063,0.004,-0.067,0.016,-0.197,-0.216,-0.191,-0.131,-0.078
'0:00.571',-0.047,-0.091,-0.044,0.069,-0.002,-0.067,0.012,-0.200,-0.219,-0.194,-0.137,-0.087
'0:00.572',-0.045,-0.100,-0.055,0.072,0.005,-0.078,0.016,-0.200,-0.228,-0.200,-0.137,-0.091
'0:00.573',-0.050,-0.109,-0.059,0.080,0.004,-0.084,0.019,-0.200,-0.231,-0.206,-0.144,-0.100
'0:00.574',-0.058,-0.122,-0.064,0.090,0.003,-0.093,0.019,-0.206,-0.234,-0.209,-0.153,-0.100
'0:00.575',-0.063,-0.128,-0.066,0.096,0.001,-0.097,0.019,-0.213,-0.244,-0.219,-0.156,-0.100
'0:00.576',-0.066,-0.136,-0.070,0.101,0.002,-0.103,0.016,-0.222,-0.250,-0.225,-0.166,-0.103
'0:00.577',-0.069,-0.141,-0.072,0.105,0.001,-0.106,0.012,-0.225,-0.256,-0.231,-0.175,-0.112
'0:00.578',-0.068,-0.142,-0.074,0.105,0.003,-0.108,0.016,-0.228,-0.262,-0.231,-0.172,-0.119
'0:00.579',-0.069,-0.141,-0.072,0.105,0.001,-0.106,0.019,-0.237,-0.262,-0.238,-0.181,-0.125
'0:00.580',-0.069,-0.142,-0.074,0.106,0.003,-0.108,0.012,-0.234,-0.259,-0.247,-0.181,-0.125
'0:00.581',-0.069,-0.144,-0.075,0.106,0.003,-0.109,0.012,-0.237,-0.262,-0.250,-0.181,-0.125
'0:00.582',-0.068,-0.144,-0.076,0.106,0.004,-0.110,0.012,-0.237,-0.262,-0.250,-0.181,-0.128
'0:00.583',-0.069,-0.144,-0.075,0.106,0.003,-0.109,0.012,-0.237,-0.262,-0.250,-0.187,-0.138
'0:00.584',-0.070,-0.147,-0.077,0.109,0.003,-0.112,0.009,-0.244,-0.269,-0.256,-0.184,-0.138
'0:00.585',-0.072,-0.153,-0.081,0.112,0.004,-0.117,0.006,-0.237,-0.269,-0.250,-0.181,-0.138
'0:00.586',-0.073,-0.156,-0.083,0.115,0.005,-0.120,0.012,-0.237,-0.269,-0.253,-0.181,-0.138
'0:00.587',-0.075,-0.156,-0.081,0.116,0.003,-0.119,0.019,-0.244,-0.269,-0.250,-0.181,-0.138
'0:00.588',-0.075,-0.153,-0.078,0.114,0.001,-0.116,0.019,-0.244,-0.269,-0.250,-0.187,-0.138
'0:00.589',-0.072,-0.153,-0.081,0.112,0.004,-0.117,0.019,-0.244,-0.269,-0.250,-0.187,-0.138
'0:00.590',-0.075,-0.153,-0.078,0.114,0.001,-0.116,0.019,-0.241,-0.278,-0.250,-0.181,-0.138
'0:00.591',-0.075,-0.153,-0.078,0.114,0.001,-0.116,0.019,-0.237,-0.275,-0.250,-0.181,-0.138
'0:00.592',-0.073,-0.152,-0.079,0.112,0.003,-0.116,0.019,-0.234,-0.272,-0.253,-0.184,-0.138
'0:00.593',-0.075,-0.150,-0.075,0.112,0.000,-0.112,0.012,-0.237,-0.269,-0.256,-0.187,-0.138
'0:00.594',-0.072,-0.154,-0.082,0.113,0.005,-0.119,0.019,-0.241,-0.272,-0.256,-0.184,-0.134
'0:00.595',-0.072,-0.156,-0.084,0.114,0.006,-0.121,0.019,-0.237,-0.275,-0.256,-0.181,-0.131
'0:00.596',-0.069,-0.153,-0.084,0.111,0.008,-0.119,0.022,-0.244,-0.278,-0.256,-0.187,-0.131
'0:00.597',-0.066,-0.150,-0.084,0.108,0.009,-0.117,0.019,-0.250,-0.281,-0.256,-0.187,-0.131
'0:00.598',-0.066,-0.151,-0.086,0.109,0.010,-0.119,0.022,-0.250,-0.287,-0.253,-0.187,-0.138
'0:00.599',-0.066,-0.153,-0.088,0.109,0.011,-0.121,0.019,-0.256,-0.287,-0.250,-0.181,-0.138
'0:00.600',-0.066,-0.153,-0.088,0.109,0.011,-0.121,0.012,-0.256,-0.278,-0.250,-0.187,-0.138
'0:00.601',-0.066,-0.153,-0.088,0.109,0.011,-0.121,0.012,-0.256,-0.275,-0.250,-0.187,-0.138
'0:00.602',-0.067,-0.156,-0.089,0.112,0.011,-0.123,0.012,-0.256,-0.281,-0.256,-0.187,-0.141
'0:00.603',-0.069,-0.153,-0.084,0.111,0.008,-0.119,0.012,-0.256,-0.281,-0.250,-0.187,-0.138
'0:00.604',-0.066,-0.154,-0.089,0.110,0.011,-0.122,0.012,-0.256,-0.281,-0.253,-0.191,-0.138
'0:00.605',-0.069,-0.156,-0.088,0.112,0.009,-0.122,0.012,-0.256,-0.281,-0.250,-0.194,-0.144
'0:00.606',-0.073,-0.157,-0.084,0.116,0.006,-0.121,0.009,-0.250,-0.281,-0.250,-0.191,-0.134
'0:00.607',-0.075,-0.159,-0.084,0.117,0.004,-0.122,0.006,-0.250,-0.281,-0.250,-0.187,-0.138
'0:00.608',-0.075,-0.159,-0.084,0.117,0.004,-0.122,0.006,-0.250,-0.284,-0.244,-0.184,-0.134
'0:00.609',-0.075,-0.159,-0.084,0.117,0.004,-0.122,0.006,-0.256,-0.287,-0.250,-0.187,-0.131
'0:00.610',-0.077,-0.159,-0.082,0.118,0.003,-0.121,0.006,-0.256,-0.287,-0.253,-0.187,-0.131
'0:00.611',-0.075,-0.159,-0.084,0.117,0.004,-0.122,0.006,-0.256,-0.287,-0.256,-0.181,-0.131
'0:00.612',-0.075,-0.158,-0.083,0.117,0.004,-0.121,0.006,-0.256,-0.284,-0.256,-0.184,-0.138
'0:00.613',-0.078,-0.159,-0.081,0.119,0.001,-0.121,0.006,-0.256,-0.281,-0.256,-0.187,-0.138
'0:00.614',-0.074,-0.156,-0.082,0.115,0.004,-0.119,0.006,-0.259,-0.284,-0.259,-0.187,-0.144
'0:00.615',-0.072,-0.153,-0.081,0.112,0.004,-0.117,0.006,-0.263,-0.287,-0.256,-0.187,-0.138
'0:00.616',-0.072,-0.153,-0.081,0.112,0.004,-0.117,0.009,-0.253,-0.284,-0.256,-0.187,-0.134
'0:00.617',-0.072,-0.153,-0.081,0.112,0.004,-0.117,0.012,-0.256,-0.281,-0.263,-0.187,-0.138
'0:00.618',-0.076,-0.153,-0.077,0.115,0.000,-0.115,0.006,-0.256,-0.281,-0.259,-0.184,-0.131
'0:00.619',-0.075,-0.153,-0.078,0.114,0.001,-0.116,0.006,-0.256,-0.281,-0.263,-0.181,-0.131
'0:00.620',-0.079,-0.153,-0.074,0.116,-0.003,-0.114,0.009,-0.256,-0.284,-0.259,-0.181,-0.131
'0:00.621',-0.084,-0.156,-0.072,0.121,-0.006,-0.114,0.012,-0.250,-0.287,-0.256,-0.181,-0.131
'0:00.622',-0.084,-0.156,-0.072,0.121,-0.006,-0.114,0.016,-0.250,-0.291,-0.256,-0.184,-0.128
'0:00.623',-0.081,-0.156,-0.075,0.119,-0.003,-0.116,0.012,-0.250,-0.287,-0.256,-0.187,-0.131
'0:00.624',-0.080,-0.155,-0.075,0.117,-0.003,-0.115,0.009,-0.259,-0.284,-0.259,-0.187,-0.125
'0:00.625',-0.075,-0.153,-0.078,0.114,0.001,-0.116,0.006,-0.256,-0.287,-0.263,-0.181,-0.125
'0:00.626',-0.078,-0.155,-0.077,0.117,-0.001,-0.116,0.006,-0.256,-0.284,-0.259,-0.184,-0.128
'0:00.627',-0.078,-0.150,-0.072,0.114,-0.003,-0.111,0.006,-0.256,-0.287,-0.256,-0.187,-0.131
'0:00.628',-0.074,-0.149,-0.075,0.111,0.001,-0.112,0.009,-0.247,-0.284,-0.253,-0.187,-0.131
'0:00.629',-0.072,-0.147,-0.075,0.109,0.001,-0.111,0.006,-0.250,-0.281,-0.250,-0.187,-0.131
'0:00.630',-0.073,-0.147,-0.074,0.110,0.000,-0.111,0.006,-0.244,-0.278,-0.253,-0.187,-0.131
'0:00.631',-0.075,-0.147,-0.072,0.111,-0.002,-0.109,0.006,-0.244,-0.281,-0.250,-0.187,-0.131
'0:00.632',-0.079,-0.151,-0.072,0.116,-0.004,-0.112,0.016,-0.244,-0.278,-0.247,-0.191,-0.131
'0:00.633',-0.081,-0.159,-0.078,0.121,-0.002,-0.119,0.019,-0.244,-0.281,-0.250,-0.187,-0.138
'0:00.634',-0.081,-0.162,-0.081,0.122,0.000,-0.122,0.025,-0.237,-0.272,-0.253,-0.187,-0.141
'0:00.635',-0.084,-0.169,-0.084,0.127,0.000,-0.127,0.037,-0.231,-0.269,-0.250,-0.187,-0.150
'0:00.636',-0.084,-0.176,-0.092,0.131,0.004,-0.134,0.044,-0.222,-0.266,-0.256,-0.194,-0.159
'0:00.637',-0.084,-0.181,-0.097,0.133,0.006,-0.139,0.056,-0.213,-0.269,-0.263,-0.206,-0.175
'0:00.638',-0.081,-0.183,-0.102,0.133,0.010,-0.143,0.069,-0.206,-0.275,-0.272,-0.216,-0.181
'0:00.639',-0.078,-0.184,-0.106,0.131,0.014,-0.146,0.081,-0.206,-0.275,-0.281,-0.225,-0.187
'0:00.640',-0.075,-0.191,-0.116,0.133,0.020,-0.153,0.087,-0.194,-0.275,-0.288,-0.237,-0.200
'0:00.641',-0.075,-0.187,-0.112,0.131,0.019,-0.150,0.100,-0.187,-0.275,-0.288,-0.244,-0.206
'0:00.642',-0.076,-0.182,-0.106,0.129,0.015,-0.144,0.119,-0.169,-0.275,-0.294,-0.244,-0.209
'0:00.643',-0.075,-0.178,-0.103,0.127,0.014,-0.141,0.125,-0.162,-0.275,-0.294,-0.244,-0.206
'0:00.644',-0.072,-0.175,-0.103,0.124,0.016,-0.139,0.128,-0.150,-0.272,-0.291,-0.253,-0.206
'0:00.645',-0.066,-0.169,-0.103,0.117,0.019,-0.136,0.131,-0.137,-0.269,-0.288,-0.256,-0.213
'0:00.646',-0.055,-0.161,-0.106,0.108,0.025,-0.133,0.131,-0.125,-0.259,-0.288,-0.256,-0.222
'0:00.647',-0.044,-0.150,-0.106,0.097,0.031,-0.128,0.137,-0.106,-0.237,-0.269,-0.250,-0.219
'0:00.648',-0.039,-0.141,-0.102,0.090,0.031,-0.121,0.147,-0.072,-0.209,-0.244,-0.234,-0.213
'0:00.649',-0.031,-0.125,-0.094,0.078,0.031,-0.109,0.150,-0.044,-0.175,-0.219,-0.213,-0.194
'0:00.650',-0.029,-0.101,-0.072,0.066,0.021,-0.087,0.150,-0.031,-0.150,-0.197,-0.184,-0.175
'0:00.651',-0.028,-0.072,-0.044,0.050,0.008,-0.058,0.150,-0.012,-0.131,-0.169,-0.156,-0.156
'0:00.652',-0.025,-0.034,-0.009,0.030,-0.008,-0.022,0.150,0.000,-0.106,-0.141,-0.128,-0.128
'0:00.653',-0.019,0.006,0.025,0.006,-0.022,0.016,0.144,0.019,-0.069,-0.100,-0.087,-0.100
'0:00.654',-0.013,0.053,0.066,-0.020,-0.039,0.059,0.141,0.041,-0.028,-0.056,-0.044,-0.053
'0:00.655',0.000,0.100,0.100,-0.050,-0.050,0.100,0.137,0.075,0.025,0.000,0.012,-0.012
'0:00.656',0.009,0.141,0.131,-0.075,-0.061,0.136,0.125,0.103,0.072,0.053,0.063,0.028
'0:00.657',0.028,0.181,0.153,-0.104,-0.063,0.167,0.106,0.131,0.125,0.112,0.119,0.069
'0:00.658',0.047,0.213,0.166,-0.129,-0.059,0.189,0.084,0.166,0.178,0.169,0.166,0.122
'0:00.659',0.062,0.250,0.187,-0.156,-0.063,0.219,0.056,0.200,0.231,0.231,0.225,0.169
'0:00.660',0.081,0.296,0.214,-0.188,-0.067,0.255,0.041,0.244,0.291,0.303,0.288,0.225
'0:00.661',0.103,0.337,0.234,-0.220,-0.066,0.286,0.019,0.281,0.356,0.375,0.356,0.281
'0:00.662',0.125,0.378,0.253,-0.251,-0.064,0.316,0.000,0.325,0.425,0.453,0.425,0.341
'0:00.663',0.144,0.419,0.275,-0.281,-0.066,0.347,-0.025,0.375,0.506,0.544,0.494,0.400
'0:00.664',0.164,0.459,0.296,-0.311,-0.066,0.378,-0.041,0.438,0.584,0.644,0.572,0.462
'0:00.665',0.187,0.506,0.319,-0.347,-0.066,0.413,-0.069,0.500,0.669,0.744,0.656,0.525
'0:00.666',0.212,0.564,0.351,-0.388,-0.069,0.457,-0.103,0.559,0.769,0.850,0.753,0.603
'0:00.667',0.237,0.625,0.387,-0.431,-0.075,0.506,-0.131,0.613,0.869,0.956,0.850,0.694
'0:00.668',0.261,0.681,0.420,-0.471,-0.079,0.551,-0.159,0.669,0.966,1.072,0.944,0.769
'0:00.669',0.278,0.734,0.456,-0.506,-0.089,0.595,-0.181,0.725,1.062,1.181,1.038,0.844
'0:00.670',0.292,0.797,0.505,-0.544,-0.107,0.651,-0.206,0.766,1.153,1.284,1.125,0.922
'0:00.671',0.306,0.863,0.556,-0.584,-0.125,0.709,-0.237,0.800,1.244,1.388,1.219,0.994
'0:00.672',0.319,0.931,0.612,-0.625,-0.147,0.772,-0.269,0.828,1.347,1.497,1.309,1.066
'0:00.673',0.334,0.984,0.650,-0.659,-0.158,0.817,-0.300,0.862,1.438,1.600,1.394,1.131
'0:00.674',0.331,1.017,0.686,-0.674,-0.177,0.851,-0.325,0.884,1.509,1.687,1.456,1.175
'0:00.675',0.325,1.047,0.722,-0.686,-0.199,0.884,-0.338,0.888,1.569,1.762,1.506,1.206
'0:00.676',0.323,1.071,0.747,-0.697,-0.212,0.909,-0.356,0.894,1.628,1.828,1.553,1.234
'0:00.677',0.316,1.097,0.781,-0.706,-0.233,0.939,-0.375,0.906,1.694,1.894,1.594,1.263
'0:00.678',0.305,1.131,0.826,-0.718,-0.261,0.979,-0.388,0.922,1.747,1.956,1.634,1.291
'0:00.679',0.281,1.166,0.884,-0.723,-0.302,1.025,-0.394,0.925,1.781,2.000,1.662,1.312
'0:00.680',0.250,1.195,0.945,-0.722,-0.347,1.070,-0.397,0.913,1.813,2.025,1.678,1.319
'0:00.681',0.222,1.184,0.962,-0.703,-0.371,1.073,-0.400,0.900,1.831,2.044,1.675,1.306
'0:00.682',0.199,1.128,0.929,-0.663,-0.366,1.029,-0.391,0.891,1.838,2.053,1.644,1.263
'0:00.683',0.181,1.037,0.856,-0.609,-0.337,0.947,-0.388,0.856,1.838,2.044,1.594,1.206
'0:00.684',0.164,0.934,0.771,-0.549,-0.304,0.853,-0.391,0.803,1.803,2.012,1.537,1.141
'0:00.685',0.156,0.828,0.672,-0.492,-0.258,0.750,-0.406,0.738,1.769,1.969,1.469,1.069
'0:00.686',0.149,0.731,0.583,-0.440,-0.217,0.657,-0.434,0.684,1.741,1.928,1.400,1.000
'0:00.687',0.138,0.650,0.513,-0.394,-0.187,0.581,-0.469,0.619,1.706,1.888,1.344,0.950
'0:00.688',0.128,0.592,0.464,-0.360,-0.168,0.528,-0.506,0.556,1.656,1.841,1.278,0.897
'0:00.689',0.119,0.538,0.419,-0.328,-0.150,0.478,-0.538,0.469,1.587,1.762,1.206,0.831
'0:00.690',0.097,0.479,0.382,-0.288,-0.143,0.431,-0.553,0.359,1.484,1.653,1.106,0.766
'0:00.691',0.069,0.413,0.344,-0.241,-0.137,0.378,-0.556,0.244,1.356,1.519,1.000,0.694
'0:00.692',0.039,0.331,0.292,-0.185,-0.126,0.311,-0.559,0.131,1.216,1.369,0.891,0.603
'0:00.693',0.019,0.247,0.228,-0.133,-0.105,0.238,-0.563,0.019,1.075,1.212,0.756,0.506
'0:00.694',0.009,0.153,0.144,-0.081,-0.068,0.148,-0.569,-0.081,0.928,1.044,0.609,0.403
'0:00.695',-0.003,0.059,0.063,-0.028,-0.033,0.061,-0.569,-0.169,0.775,0.869,0.463,0.306
'0:00.696',-0.023,-0.037,-0.014,0.031,-0.004,-0.026,-0.559,-0.253,0.622,0.687,0.319,0.197
'0:00.697',-0.037,-0.122,-0.084,0.080,0.023,-0.103,-0.550,-0.337,0.469,0.506,0.187,0.100
'0:00.698',-0.054,-0.194,-0.139,0.124,0.043,-0.167,-0.534,-0.403,0.325,0.344,0.078,0.028
'0:00.699',-0.075,-0.247,-0.172,0.161,0.048,-0.209,-0.513,-0.475,0.175,0.187,-0.019,-0.038
'0:00.700',-0.091,-0.281,-0.191,0.186,0.050,-0.236,-0.481,-0.553,0.022,0.037,-0.097,-0.078
'0:00.701',-0.106,-0.309,-0.203,0.208,0.048,-0.256,-0.450,-0.631,-0.125,-0.100,-0.163,-0.112
'0:00.702',-0.106,-0.321,-0.214,0.214,0.054,-0.267,-0.441,-0.703,-0.284,-0.231,-0.222,-0.144
'0:00.703',-0.109,-0.325,-0.216,0.217,0.053,-0.271,-0.431,-0.769,-0.406,-0.338,-0.262,-0.163
'0:00.704',-0.114,-0.326,-0.212,0.221,0.049,-0.269,-0.428,-0.806,-0.481,-0.403,-0.287,-0.181
'0:00.705',-0.113,-0.325,-0.213,0.219,0.050,-0.269,-0.413,-0.812,-0.519,-0.431,-0.294,-0.187
'0:00.706',-0.114,-0.319,-0.205,0.216,0.046,-0.262,-0.388,-0.791,-0.528,-0.431,-0.297,-0.194
'0:00.707',-0.113,-0.316,-0.203,0.214,0.045,-0.259,-0.369,-0.769,-0.525,-0.431,-0.300,-0.194
'0:00.708',-0.113,-0.311,-0.198,0.212,0.043,-0.254,-0.347,-0.737,-0.506,-0.422,-0.294,-0.187
'0:00.709',-0.113,-0.303,-0.191,0.208,0.039,-0.247,-0.325,-0.706,-0.494,-0.413,-0.281,-0.187
'0:00.710',-0.111,-0.292,-0.181,0.201,0.035,-0.237,-0.300,-0.672,-0.475,-0.391,-0.269,-0.181
'0:00.711',-0.106,-0.275,-0.169,0.191,0.031,-0.222,-0.275,-0.625,-0.450,-0.369,-0.256,-0.175
'0:00.712',-0.100,-0.256,-0.156,0.178,0.028,-0.206,-0.250,-0.591,-0.425,-0.353,-0.247,-0.166
'0:00.713',-0.094,-0.241,-0.147,0.168,0.026,-0.194,-0.225,-0.556,-0.412,-0.344,-0.237,-0.163
'0:00.714',-0.091,-0.234,-0.144,0.162,0.026,-0.189,-0.203,-0.525,-0.400,-0.334,-0.234,-0.166
'0:00.715',-0.088,-0.228,-0.141,0.158,0.026,-0.184,-0.188,-0.494,-0.394,-0.325,-0.237,-0.169
'0:00.716',-0.088,-0.222,-0.134,0.155,0.023,-0.178,-0.159,-0.462,-0.375,-0.322,-0.234,-0.166
'0:00.717',-0.084,-0.219,-0.134,0.152,0.025,-0.177,-0.138,-0.425,-0.356,-0.313,-0.231,-0.169
'0:00.718',-0.078,-0.208,-0.130,0.143,0.026,-0.169,-0.116,-0.391,-0.341,-0.306,-0.225,-0.163
'0:00.719',-0.075,-0.197,-0.122,0.136,0.023,-0.159,-0.106,-0.362,-0.319,-0.288,-0.213,-0.150
'0:00.720',-0.073,-0.184,-0.111,0.129,0.019,-0.148,-0.091,-0.344,-0.306,-0.284,-0.206,-0.147
'0:00.721',-0.069,-0.178,-0.109,0.124,0.020,-0.144,-0.081,-0.319,-0.294,-0.275,-0.200,-0.144
'0:00.722',-0.067,-0.173,-0.106,0.120,0.019,-0.140,-0.072,-0.306,-0.287,-0.269,-0.200,-0.141
'0:00.723',-0.066,-0.169,-0.103,0.117,0.019,-0.136,-0.063,-0.294,-0.275,-0.269,-0.194,-0.138
'0:00.724',-0.059,-0.162,-0.103,0.111,0.022,-0.133,-0.059,-0.281,-0.269,-0.259,-0.194,-0.131
'0:00.725',-0.056,-0.156,-0.100,0.106,0.022,-0.128,-0.056,-0.275,-0.269,-0.263,-0.187,-0.131
'0:00.726',-0.056,-0.153,-0.097,0.105,0.020,-0.125,-0.041,-0.263,-0.266,-0.256,-0.181,-0.131
'0:00.727',-0.056,-0.147,-0.091,0.102,0.017,-0.119,-0.038,-0.256,-0.262,-0.256,-0.181,-0.131
'0:00.728',-0.061,-0.139,-0.079,0.100,0.009,-0.109,-0.028,-0.250,-0.253,-0.250,-0.178,-0.128
'0:00.729',-0.063,-0.134,-0.072,0.099,0.004,-0.103,-0.019,-0.244,-0.244,-0.238,-0.175,-0.125
'0:00.730',-0.061,-0.131,-0.071,0.096,0.005,-0.101,-0.016,-0.244,-0.244,-0.238,-0.175,-0.119
'0:00.731',-0.063,-0.128,-0.066,0.096,0.001,-0.097,-0.013,-0.244,-0.244,-0.231,-0.175,-0.119
'0:00.732',-0.059,-0.122,-0.063,0.091,0.001,-0.092,-0.013,-0.237,-0.244,-0.238,-0.175,-0.125
'0:00.733',-0.056,-0.112,-0.056,0.084,0.000,-0.084,-0.013,-0.231,-0.244,-0.231,-0.175,-0.119
'0:00.734',-0.059,-0.114,-0.054,0.087,-0.003,-0.084,-0.006,-0.225,-0.247,-0.231,-0.175,-0.119
'0:00.735',-0.056,-0.116,-0.059,0.086,0.001,-0.087,-0.006,-0.225,-0.250,-0.231,-0.175,-0.119
'0:00.736',-0.056,-0.114,-0.058,0.086,0.001,-0.086,0.000,-0.219,-0.247,-0.228,-0.175,-0.119
'0:00.737',-0.056,-0.112,-0.056,0.084,0.000,-0.084,0.000,-0.213,-0.244,-0.231,-0.175,-0.119
'0:00.738',-0.055,-0.112,-0.058,0.084,0.001,-0.085,0.009,-0.209,-0.244,-0.225,-0.172,-0.119
'0:00.739',-0.053,-0.112,-0.059,0.083,0.003,-0.086,0.012,-0.200,-0.237,-0.231,-0.169,-0.119
'0:00.740',-0.054,-0.119,-0.064,0.087,0.005,-0.092,0.012,-0.197,-0.234,-0.231,-0.169,-0.125
'0:00.741',-0.063,-0.122,-0.059,0.092,-0.002,-0.091,0.012,-0.194,-0.231,-0.231,-0.169,-0.125
'0:00.742',-0.061,-0.125,-0.064,0.093,0.002,-0.095,0.016,-0.197,-0.231,-0.231,-0.169,-0.125
'0:00.743',-0.063,-0.125,-0.063,0.094,0.000,-0.094,0.019,-0.194,-0.231,-0.231,-0.169,-0.125
'0:00.744',-0.059,-0.124,-0.064,0.092,0.003,-0.094,0.025,-0.194,-0.234,-0.225,-0.169,-0.128
'0:00.745',-0.059,-0.122,-0.063,0.091,0.001,-0.092,0.019,-0.194,-0.237,-0.225,-0.169,-0.125
'0:00.746',-0.053,-0.114,-0.061,0.084,0.004,-0.088,0.016,-0.194,-0.241,-0.225,-0.169,-0.125
'0:00.747',-0.050,-0.112,-0.063,0.081,0.006,-0.087,0.012,-0.194,-0.244,-0.225,-0.169,-0.125
'0:00.748',-0.050,-0.111,-0.061,0.081,0.005,-0.086,0.012,-0.194,-0.234,-0.222,-0.166,-0.128
'0:00.749',-0.053,-0.109,-0.056,0.081,0.001,-0.083,0.012,-0.194,-0.231,-0.219,-0.175,-0.131
'0:00.750',-0.051,-0.111,-0.059,0.081,0.004,-0.085,0.019,-0.187,-0.231,-0.219,-0.166,-0.128
'0:00.751',-0.053,-0.109,-0.056,0.081,0.001,-0.083,0.019,-0.187,-0.231,-0.219,-0.163,-0.119
'0:00.752',-0.054,-0.111,-0.056,0.082,0.001,-0.084,0.012,-0.184,-0.228,-0.222,-0.166,-0.116
'0:00.753',-0.056,-0.112,-0.056,0.084,0.000,-0.084,0.019,-0.181,-0.225,-0.219,-0.156,-0.112
'0:00.754',-0.058,-0.111,-0.054,0.084,-0.002,-0.082,0.022,-0.181,-0.228,-0.219,-0.156,-0.119
'0:00.755',-0.056,-0.109,-0.053,0.083,-0.002,-0.081,0.025,-0.175,-0.225,-0.219,-0.156,-0.119
'0:00.756',-0.055,-0.114,-0.059,0.084,0.002,-0.086,0.028,-0.175,-0.222,-0.222,-0.156,-0.119
'0:00.757',-0.050,-0.112,-0.063,0.081,0.006,-0.087,0.025,-0.169,-0.225,-0.225,-0.156,-0.119
'0:00.758',-0.052,-0.111,-0.059,0.082,0.004,-0.086,0.022,-0.169,-0.222,-0.222,-0.156,-0.119
'0:00.759',-0.053,-0.112,-0.059,0.083,0.003,-0.086,0.031,-0.169,-0.225,-0.219,-0.156,-0.119
'0:00.760',-0.051,-0.111,-0.059,0.081,0.004,-0.085,0.028,-0.172,-0.225,-0.209,-0.150,-0.116
'0:00.761',-0.053,-0.112,-0.059,0.083,0.003,-0.086,0.025,-0.175,-0.219,-0.212,-0.150,-0.119
'0:00.762',-0.049,-0.109,-0.061,0.079,0.006,-0.085,0.022,-0.169,-0.225,-0.216,-0.150,-0.119
'0:00.763',-0.047,-0.106,-0.059,0.077,0.006,-0.083,0.025,-0.169,-0.225,-0.212,-0.150,-0.119
'0:00.764',-0.047,-0.100,-0.053,0.074,0.003,-0.077,0.022,-0.172,-0.225,-0.212,-0.153,-0.119
'0:00.765',-0.047,-0.097,-0.050,0.072,0.001,-0.074,0.019,-0.175,-0.225,-0.212,-0.156,-0.119
'0:00.766',-0.048,-0.098,-0.050,0.073,0.001,-0.074,0.019,-0.175,-0.222,-0.216,-0.159,-0.119
'0:00.767',-0.050,-0.097,-0.047,0.074,-0.002,-0.072,0.019,-0.169,-0.225,-0.219,-0.156,-0.112
'0:00.768',-0.051,-0.097,-0.046,0.074,-0.003,-0.071,0.028,-0.166,-0.225,-0.212,-0.153,-0.109
'0:00.769',-0.050,-0.097,-0.047,0.074,-0.002,-0.072,0.025,-0.162,-0.219,-0.212,-0.150,-0.106
'0:00.770',-0.053,-0.101,-0.048,0.077,-0.003,-0.075,0.022,-0.162,-0.216,-0.206,-0.150,-0.109
'0:00.771',-0.053,-0.103,-0.050,0.078,-0.002,-0.077,0.025,-0.156,-0.212,-0.206,-0.150,-0.112
'0:00.772',-0.050,-0.101,-0.051,0.076,0.001,-0.076,0.028,-0.156,-0.212,-0.212,-0.153,-0.109
'0:00.773',-0.053,-0.106,-0.053,0.080,0.000,-0.080,0.031,-0.150,-0.212,-0.206,-0.150,-0.106
'0:00.774',-0.047,-0.099,-0.052,0.073,0.003,-0.076,0.028,-0.153,-0.212,-0.206,-0.150,-0.109
'0:00.775',-0.044,-0.094,-0.050,0.069,0.003,-0.072,0.025,-0.150,-0.206,-0.206,-0.150,-0.112
'0:00.776',-0.045,-0.095,-0.050,0.070,0.003,-0.073,0.025,-0.150,-0.206,-0.206,-0.150,-0.109
'0:00.777',-0.047,-0.097,-0.050,0.072,0.001,-0.074,0.025,-0.150,-0.206,-0.206,-0.150,-0.106
'0:00.778',-0.044,-0.097,-0.053,0.071,0.004,-0.075,0.028,-0.150,-0.206,-0.203,-0.150,-0.109
'0:00.779',-0.044,-0.094,-0.050,0.069,0.003,-0.072,0.031,-0.156,-0.206,-0.200,-0.150,-0.106
'0:00.780',-0.046,-0.094,-0.048,0.070,0.001,-0.071,0.028,-0.150,-0.209,-0.197,-0.153,-0.116
'0:00.781',-0.041,-0.091,-0.050,0.066,0.004,-0.071,0.025,-0.150,-0.206,-0.200,-0.156,-0.112
'0:00.782',-0.039,-0.089,-0.050,0.064,0.006,-0.069,0.025,-0.150,-0.203,-0.203,-0.150,-0.112
'0:00.783',-0.041,-0.091,-0.050,0.066,0.004,-0.071,0.025,-0.150,-0.206,-0.200,-0.150,-0.112
'0:00.784',-0.039,-0.089,-0.050,0.064,0.006,-0.069,0.025,-0.141,-0.200,-0.194,-0.147,-0.103
'0:00.785',-0.041,-0.091,-0.050,0.066,0.004,-0.071,0.025,-0.137,-0.194,-0.187,-0.144,-0.100
'0:00.786',-0.044,-0.093,-0.049,0.068,0.003,-0.071,0.031,-0.141,-0.197,-0.191,-0.147,-0.109
'0:00.787',-0.037,-0.091,-0.053,0.064,0.008,-0.072,0.025,-0.137,-0.200,-0.187,-0.144,-0.106
'0:00.788',-0.037,-0.086,-0.049,0.062,0.006,-0.067,0.025,-0.134,-0.197,-0.187,-0.141,-0.109
'0:00.789',-0.037,-0.091,-0.053,0.064,0.008,-0.072,0.031,-0.131,-0.194,-0.187,-0.137,-0.106
'0:00.790',-0.039,-0.092,-0.053,0.066,0.006,-0.073,0.031,-0.134,-0.187,-0.187,-0.137,-0.100
'0:00.791',-0.034,-0.094,-0.059,0.064,0.013,-0.077,0.031,-0.137,-0.187,-0.187,-0.137,-0.100
'0:00.792',-0.034,-0.095,-0.061,0.065,0.013,-0.078,0.031,-0.131,-0.187,-0.184,-0.137,-0.100
'0:00.793',-0.034,-0.094,-0.059,0.064,0.013,-0.077,0.031,-0.131,-0.187,-0.181,-0.137,-0.100
'0:00.794',-0.033,-0.093,-0.059,0.063,0.013,-0.076,0.025,-0.128,-0.187,-0.184,-0.137,-0.100
'0:00.795',-0.031,-0.091,-0.059,0.061,0.014,-0.075,0.025,-0.125,-0.187,-0.181,-0.137,-0.100
'0:00.796',-0.033,-0.089,-0.056,0.061,0.012,-0.073,0.028,-0.119,-0.181,-0.181,-0.137,-0.103
'0:00.797',-0.031,-0.091,-0.059,0.061,0.014,-0.075,0.031,-0.112,-0.175,-0.175,-0.131,-0.100
'0:00.798',-0.036,-0.092,-0.056,0.064,0.010,-0.074,0.037,-0.122,-0.172,-0.172,-0.128,-0.097
'0:00.799',-0.034,-0.091,-0.056,0.063,0.011,-0.074,0.037,-0.119,-0.169,-0.169,-0.125,-0.094
'0:00.800',-0.036,-0.089,-0.053,0.063,0.009,-0.071,0.031,-0.116,-0.166,-0.169,-0.128,-0.094
'0:00.801',-0.034,-0.091,-0.056,0.063,0.011,-0.074,0.037,-0.112,-0.169,-0.169,-0.131,-0.094
'0:00.802',-0.033,-0.089,-0.056,0.061,0.011,-0.073,0.037,-0.116,-0.169,-0.166,-0.131,-0.091
'0:00.803',-0.034,-0.084,-0.050,0.059,0.008,-0.067,0.037,-0.112,-0.169,-0.169,-0.125,-0.087
'0:00.804',-0.036,-0.088,-0.052,0.062,0.008,-0.070,0.034,-0.109,-0.166,-0.169,-0.122,-0.087
'0:00.805',-0.037,-0.088,-0.050,0.063,0.006,-0.069,0.031,-0.106,-0.169,-0.169,-0.119,-0.081
'0:00.806',-0.034,-0.084,-0.050,0.059,0.008,-0.067,0.034,-0.103,-0.169,-0.159,-0.125,-0.084
'0:00.807',-0.034,-0.084,-0.050,0.059,0.008,-0.067,0.037,-0.100,-0.169,-0.156,-0.125,-0.087
'0:00.808',-0.031,-0.080,-0.049,0.056,0.009,-0.064,0.037,-0.100,-0.159,-0.162,-0.122,-0.087
'0:00.809',-0.031,-0.078,-0.047,0.055,0.008,-0.062,0.031,-0.100,-0.156,-0.162,-0.119,-0.087
'0:00.810',-0.033,-0.075,-0.042,0.054,0.004,-0.059,0.034,-0.100,-0.156,-0.162,-0.122,-0.087
'0:00.811',-0.031,-0.072,-0.041,0.052,0.004,-0.056,0.031,-0.094,-0.150,-0.162,-0.125,-0.087
'0:00.812',-0.033,-0.076,-0.044,0.054,0.006,-0.060,0.034,-0.088,-0.147,-0.159,-0.119,-0.087
'0:00.813',-0.031,-0.081,-0.050,0.056,0.009,-0.066,0.037,-0.088,-0.144,-0.156,-0.119,-0.087
'0:00.814',-0.036,-0.078,-0.042,0.057,0.003,-0.061,0.037,-0.088,-0.141,-0.150,-0.116,-0.084
'0:00.815',-0.034,-0.081,-0.047,0.058,0.006,-0.064,0.037,-0.081,-0.137,-0.150,-0.112,-0.075
'0:00.816',-0.036,-0.081,-0.046,0.059,0.005,-0.064,0.037,-0.081,-0.134,-0.144,-0.112,-0.075
'0:00.817',-0.034,-0.075,-0.041,0.055,0.003,-0.058,0.037,-0.081,-0.131,-0.144,-0.112,-0.075
'0:00.818',-0.034,-0.074,-0.039,0.054,0.003,-0.057,0.037,-0.075,-0.128,-0.141,-0.116,-0.075
'0:00.819',-0.028,-0.069,-0.041,0.049,0.006,-0.055,0.037,-0.069,-0.131,-0.131,-0.112,-0.075
'0:00.820',-0.030,-0.070,-0.040,0.050,0.005,-0.055,0.034,-0.066,-0.125,-0.134,-0.112,-0.069
'0:00.821',-0.028,-0.072,-0.044,0.050,0.008,-0.058,0.031,-0.062,-0.119,-0.131,-0.106,-0.069
'0:00.822',-0.029,-0.070,-0.041,0.050,0.006,-0.056,0.028,-0.059,-0.119,-0.131,-0.103,-0.069
'0:00.823',-0.028,-0.072,-0.044,0.050,0.008,-0.058,0.025,-0.056,-0.119,-0.125,-0.100,-0.069
'0:00.824',-0.029,-0.067,-0.038,0.049,0.004,-0.053,0.025,-0.056,-0.112,-0.125,-0.100,-0.072
'0:00.825',-0.031,-0.066,-0.034,0.049,0.001,-0.050,0.025,-0.056,-0.112,-0.119,-0.100,-0.075
'0:00.826',-0.028,-0.066,-0.037,0.047,0.004,-0.052,0.028,-0.047,-0.106,-0.119,-0.094,-0.069
'0:00.827',-0.028,-0.066,-0.037,0.047,0.004,-0.052,0.031,-0.044,-0.106,-0.119,-0.094,-0.069
'0:00.828',-0.025,-0.067,-0.042,0.046,0.008,-0.054,0.031,-0.041,-0.100,-0.112,-0.094,-0.069
'0:00.829',-0.019,-0.066,-0.047,0.042,0.014,-0.056,0.031,-0.038,-0.100,-0.112,-0.094,-0.069
'0:00.830',-0.019,-0.062,-0.044,0.041,0.013,-0.053,0.028,-0.038,-0.094,-0.106,-0.087,-0.069
'0:00.831',-0.022,-0.062,-0.041,0.042,0.009,-0.052,0.025,-0.031,-0.094,-0.100,-0.087,-0.063
'0:00.832',-0.025,-0.062,-0.037,0.044,0.006,-0.050,0.031,-0.022,-0.091,-0.103,-0.081,-0.059
'0:00.833',-0.025,-0.062,-0.037,0.044,0.006,-0.050,0.025,-0.019,-0.087,-0.100,-0.081,-0.056
'0:00.834',-0.025,-0.061,-0.036,0.043,0.005,-0.048,0.025,-0.016,-0.091,-0.097,-0.081,-0.056
'0:00.835',-0.025,-0.062,-0.037,0.044,0.006,-0.050,0.025,-0.019,-0.094,-0.094,-0.081,-0.056
'0:00.836',-0.024,-0.064,-0.040,0.044,0.008,-0.052,0.028,-0.009,-0.081,-0.094,-0.081,-0.059
'0:00.837',-0.022,-0.062,-0.041,0.042,0.009,-0.052,0.031,-0.006,-0.075,-0.087,-0.075,-0.056
'0:00.838',-0.019,-0.056,-0.037,0.037,0.009,-0.047,0.034,0.003,-0.072,-0.078,-0.075,-0.056
'0:00.839',-0.016,-0.050,-0.034,0.033,0.009,-0.042,0.037,0.006,-0.069,-0.075,-0.069,-0.056
'0:00.840',-0.013,-0.051,-0.039,0.032,0.013,-0.045,0.037,0.006,-0.069,-0.069,-0.072,-0.059
'0:00.841',-0.013,-0.050,-0.037,0.031,0.013,-0.044,0.037,0.006,-0.062,-0.069,-0.069,-0.056
'0:00.842',-0.013,-0.048,-0.036,0.031,0.011,-0.042,0.037,0.009,-0.056,-0.062,-0.066,-0.053
'0:00.843',-0.013,-0.053,-0.041,0.033,0.014,-0.047,0.037,0.019,-0.050,-0.056,-0.062,-0.050
'0:00.844',-0.011,-0.048,-0.037,0.029,0.013,-0.043,0.037,0.022,-0.041,-0.059,-0.056,-0.050
'0:00.845',-0.013,-0.050,-0.037,0.031,0.013,-0.044,0.037,0.025,-0.037,-0.056,-0.056,-0.044
'0:00.846',-0.009,-0.047,-0.037,0.028,0.014,-0.042,0.034,0.034,-0.031,-0.047,-0.047,-0.044
'0:00.847',-0.006,-0.044,-0.037,0.025,0.016,-0.041,0.031,0.038,-0.025,-0.037,-0.044,-0.044
'0:00.848',-0.006,-0.037,-0.031,0.022,0.013,-0.034,0.028,0.041,-0.019,-0.037,-0.047,-0.044
'0:00.849',-0.003,-0.031,-0.028,0.018,0.013,-0.030,0.025,0.044,-0.019,-0.031,-0.044,-0.038
'0:00.850',0.003,-0.032,-0.036,0.015,0.019,-0.034,0.028,0.050,-0.012,-0.034,-0.044,-0.038
'0:00.851',0.006,-0.031,-0.037,0.012,0.022,-0.034,0.031,0.050,-0.006,-0.031,-0.044,-0.038
'0:00.852',0.005,-0.032,-0.037,0.014,0.021,-0.035,0.028,0.059,-0.006,-0.022,-0.038,-0.031
'0:00.853',0.003,-0.031,-0.034,0.014,0.019,-0.033,0.025,0.069,0.000,-0.019,-0.038,-0.038
'0:00.854',0.003,-0.029,-0.033,0.013,0.018,-0.031,0.025,0.072,0.006,-0.012,-0.028,-0.031
'0:00.855',0.003,-0.028,-0.031,0.012,0.017,-0.030,0.025,0.069,0.012,-0.006,-0.025,-0.031
'0:00.856',0.006,-0.028,-0.034,0.011,0.020,-0.031,0.025,0.072,0.016,-0.006,-0.022,-0.031
'0:00.857',0.009,-0.028,-0.037,0.009,0.023,-0.033,0.025,0.081,0.019,0.000,-0.025,-0.025
'0:00.858',0.008,-0.027,-0.035,0.009,0.021,-0.031,0.025,0.084,0.025,0.000,-0.019,-0.028
'0:00.859',0.009,-0.022,-0.031,0.006,0.020,-0.027,0.025,0.094,0.038,0.000,-0.019,-0.025
'0:00.860',0.011,-0.020,-0.031,0.004,0.021,-0.026,0.031,0.100,0.041,0.009,-0.012,-0.019
'0:00.861',0.009,-0.019,-0.028,0.005,0.019,-0.024,0.037,0.113,0.044,0.012,-0.012,-0.012
'0:00.862',0.012,-0.017,-0.029,0.002,0.021,-0.023,0.037,0.116,0.050,0.022,-0.003,-0.009
'0:00.863',0.012,-0.019,-0.031,0.003,0.022,-0.025,0.037,0.125,0.056,0.031,0.000,0.000
'0:00.864',0.014,-0.016,-0.029,0.001,0.021,-0.022,0.041,0.131,0.059,0.034,0.003,-0.006
'0:00.865',0.016,-0.012,-0.028,-0.001,0.022,-0.021,0.037,0.137,0.063,0.037,0.006,-0.006
'0:00.866',0.019,-0.012,-0.031,-0.003,0.025,-0.022,0.041,0.141,0.069,0.041,0.006,-0.009
'0:00.867',0.022,-0.009,-0.031,-0.006,0.026,-0.021,0.031,0.150,0.075,0.044,0.012,-0.012
'0:00.868',0.021,-0.007,-0.028,-0.006,0.024,-0.018,0.034,0.159,0.084,0.056,0.012,-0.003
'0:00.869',0.019,-0.006,-0.025,-0.006,0.022,-0.016,0.025,0.169,0.094,0.062,0.012,0.000
'0:00.870',0.021,-0.002,-0.023,-0.009,0.021,-0.012,0.025,0.163,0.100,0.066,0.019,0.000
'0:00.871',0.019,0.003,-0.016,-0.011,0.017,-0.006,0.025,0.169,0.106,0.069,0.019,0.006
'0:00.872',0.019,0.003,-0.016,-0.011,0.017,-0.006,0.022,0.175,0.106,0.072,0.025,0.006
'0:00.873',0.022,0.006,-0.016,-0.014,0.019,-0.005,0.019,0.181,0.113,0.075,0.031,0.006
'0:00.874',0.026,0.011,-0.016,-0.018,0.021,-0.002,0.022,0.181,0.119,0.081,0.031,0.006
'0:00.875',0.028,0.016,-0.013,-0.022,0.020,0.001,0.025,0.194,0.125,0.087,0.038,0.012
'0:00.876',0.030,0.019,-0.011,-0.024,0.021,0.004,0.019,0.203,0.131,0.094,0.044,0.019
'0:00.877',0.031,0.022,-0.009,-0.026,0.020,0.006,0.019,0.213,0.138,0.100,0.044,0.019
'0:00.878',0.033,0.025,-0.007,-0.029,0.020,0.009,0.025,0.222,0.141,0.106,0.047,0.019
'0:00.879',0.037,0.025,-0.013,-0.031,0.025,0.006,0.025,0.225,0.150,0.112,0.044,0.025
'0:00.880',0.039,0.025,-0.014,-0.032,0.027,0.005,0.025,0.234,0.159,0.119,0.053,0.025
'0:00.881',0.037,0.028,-0.009,-0.033,0.023,0.009,0.025,0.244,0.169,0.125,0.056,0.031
'0:00.882',0.041,0.036,-0.005,-0.038,0.023,0.015,0.022,0.250,0.175,0.131,0.066,0.031
'0:00.883',0.041,0.044,0.003,-0.042,0.019,0.023,0.025,0.256,0.181,0.137,0.069,0.031
'0:00.884',0.048,0.043,-0.006,-0.045,0.027,0.018,0.028,0.259,0.187,0.144,0.072,0.041
'0:00.885',0.056,0.047,-0.009,-0.051,0.033,0.019,0.031,0.269,0.194,0.150,0.075,0.044
'0:00.886',0.061,0.050,-0.011,-0.055,0.036,0.019,0.028,0.278,0.209,0.153,0.081,0.050
'0:00.887',0.062,0.053,-0.009,-0.058,0.036,0.022,0.025,0.288,0.219,0.162,0.087,0.050
'0:00.888',0.066,0.056,-0.009,-0.061,0.038,0.023,0.025,0.294,0.222,0.172,0.087,0.053
'0:00.889',0.066,0.059,-0.006,-0.063,0.036,0.026,0.025,0.306,0.231,0.181,0.094,0.056
'0:00.890',0.064,0.061,-0.003,-0.063,0.034,0.029,0.022,0.312,0.241,0.191,0.103,0.059
'0:00.891',0.062,0.063,0.000,-0.063,0.031,0.031,0.019,0.325,0.250,0.200,0.106,0.063
'0:00.892',0.064,0.061,-0.003,-0.063,0.034,0.029,0.022,0.331,0.259,0.212,0.109,0.059
'0:00.893',0.066,0.063,-0.003,-0.064,0.034,0.029,0.019,0.338,0.263,0.219,0.113,0.063
'0:00.894',0.070,0.066,-0.004,-0.068,0.037,0.031,0.016,0.344,0.272,0.225,0.122,0.066
'0:00.895',0.075,0.069,-0.006,-0.072,0.041,0.031,0.012,0.350,0.288,0.231,0.125,0.075
'0:00.896',0.077,0.068,-0.009,-0.072,0.043,0.029,0.016,0.362,0.294,0.244,0.131,0.075
'0:00.897',0.075,0.069,-0.006,-0.072,0.041,0.031,0.019,0.369,0.300,0.256,0.131,0.081
'0:00.898',0.077,0.073,-0.004,-0.075,0.040,0.034,0.016,0.375,0.303,0.256,0.137,0.081
'0:00.899',0.075,0.078,0.003,-0.076,0.036,0.041,0.012,0.381,0.313,0.262,0.144,0.087
'0:00.900',0.081,0.083,0.001,-0.082,0.040,0.042,0.006,0.384,0.319,0.259,0.150,0.087
'0:00.901',0.087,0.088,0.000,-0.088,0.044,0.044,0.012,0.394,0.325,0.269,0.150,0.094
'0:00.902',0.092,0.094,0.002,-0.093,0.045,0.048,0.009,0.406,0.334,0.278,0.159,0.094
'0:00.903',0.094,0.097,0.003,-0.095,0.045,0.050,0.012,0.419,0.350,0.288,0.163,0.100
'0:00.904',0.099,0.099,0.000,-0.099,0.049,0.049,0.012,0.425,0.359,0.294,0.169,0.097
'0:00.905',0.097,0.100,0.003,-0.098,0.047,0.051,0.012,0.431,0.369,0.300,0.175,0.100
'0:00.906',0.098,0.100,0.002,-0.099,0.048,0.051,0.009,0.431,0.369,0.306,0.172,0.103
'0:00.907',0.100,0.100,0.000,-0.100,0.050,0.050,0.006,0.438,0.369,0.313,0.175,0.106
'0:00.908',0.102,0.103,0.001,-0.103,0.050,0.052,0.006,0.447,0.381,0.319,0.181,0.106
'0:00.909',0.100,0.103,0.003,-0.101,0.048,0.053,0.000,0.456,0.381,0.325,0.181,0.112
'0:00.910',0.106,0.106,0.000,-0.106,0.053,0.053,0.000,0.463,0.384,0.325,0.184,0.112
'0:00.911',0.109,0.109,0.000,-0.109,0.054,0.054,0.000,0.469,0.394,0.331,0.181,0.119
'0:00.912',0.116,0.112,-0.003,-0.114,0.059,0.054,-0.006,0.469,0.397,0.338,0.191,0.116
'0:00.913',0.119,0.116,-0.003,-0.117,0.061,0.056,0.000,0.475,0.413,0.344,0.194,0.119
'0:00.914',0.121,0.119,-0.002,-0.119,0.061,0.058,-0.009,0.478,0.413,0.353,0.200,0.119
'0:00.915',0.122,0.119,-0.003,-0.120,0.063,0.058,-0.013,0.481,0.419,0.356,0.200,0.125
'0:00.916',0.121,0.119,-0.002,-0.119,0.061,0.058,-0.013,0.491,0.425,0.359,0.209,0.128
'0:00.917',0.119,0.122,0.003,-0.120,0.058,0.062,-0.013,0.494,0.431,0.363,0.213,0.131
'0:00.918',0.119,0.125,0.006,-0.122,0.056,0.066,-0.013,0.503,0.441,0.369,0.213,0.134
'0:00.919',0.119,0.125,0.006,-0.122,0.056,0.066,-0.013,0.506,0.444,0.375,0.219,0.131
'0:00.920',0.119,0.131,0.012,-0.125,0.053,0.072,-0.013,0.513,0.450,0.378,0.219,0.134
'0:00.921',0.119,0.134,0.016,-0.126,0.051,0.075,-0.013,0.513,0.456,0.388,0.225,0.137
'0:00.922',0.119,0.136,0.017,-0.128,0.051,0.077,-0.009,0.519,0.456,0.384,0.228,0.141
'0:00.923',0.116,0.134,0.019,-0.125,0.048,0.076,-0.013,0.525,0.463,0.388,0.231,0.144
'0:00.924',0.117,0.134,0.017,-0.126,0.050,0.076,-0.013,0.522,0.459,0.388,0.234,0.150
'0:00.925',0.119,0.137,0.019,-0.128,0.050,0.078,-0.013,0.525,0.463,0.388,0.231,0.150
'0:00.926',0.122,0.141,0.019,-0.131,0.051,0.079,-0.013,0.528,0.466,0.397,0.228,0.147
'0:00.927',0.122,0.141,0.019,-0.131,0.051,0.079,-0.013,0.531,0.469,0.400,0.225,0.144
'0:00.928',0.122,0.142,0.020,-0.132,0.051,0.081,-0.013,0.531,0.472,0.406,0.231,0.144
'0:00.929',0.122,0.147,0.025,-0.134,0.048,0.086,-0.013,0.531,0.469,0.406,0.231,0.144
'0:00.930',0.128,0.150,0.022,-0.139,0.053,0.086,-0.016,0.537,0.478,0.413,0.231,0.144
'0:00.931',0.134,0.150,0.016,-0.142,0.059,0.082,-0.019,0.537,0.481,0.413,0.231,0.150
'0:00.932',0.133,0.151,0.018,-0.142,0.058,0.084,-0.022,0.537,0.488,0.413,0.234,0.150
'0:00.933',0.134,0.156,0.022,-0.145,0.056,0.089,-0.025,0.537,0.488,0.419,0.244,0.150
'0:00.934',0.136,0.155,0.019,-0.146,0.059,0.087,-0.025,0.544,0.494,0.419,0.244,0.150
'0:00.935',0.134,0.156,0.022,-0.145,0.056,0.089,-0.025,0.544,0.494,0.419,0.244,0.150
'0:00.936',0.133,0.155,0.022,-0.144,0.056,0.088,-0.022,0.544,0.494,0.416,0.244,0.156
'0:00.937',0.131,0.153,0.022,-0.142,0.054,0.087,-0.025,0.544,0.494,0.419,0.244,0.156
'0:00.938',0.131,0.152,0.021,-0.141,0.055,0.086,-0.019,0.544,0.500,0.425,0.250,0.159
'0:00.939',0.134,0.153,0.019,-0.144,0.058,0.086,-0.019,0.544,0.494,0.431,0.250,0.163
'0:00.940',0.132,0.153,0.021,-0.143,0.056,0.087,-0.025,0.544,0.491,0.431,0.250,0.163
'0:00.941',0.131,0.150,0.019,-0.141,0.056,0.084,-0.025,0.550,0.494,0.431,0.250,0.163
'0:00.942',0.130,0.147,0.017,-0.138,0.056,0.082,-0.019,0.553,0.500,0.434,0.250,0.166
'0:00.943',0.128,0.144,0.016,-0.136,0.056,0.079,-0.019,0.556,0.506,0.431,0.250,0.169
'0:00.944',0.127,0.144,0.017,-0.135,0.055,0.080,-0.016,0.553,0.506,0.431,0.250,0.166
'0:00.945',0.125,0.144,0.019,-0.134,0.053,0.081,-0.013,0.550,0.506,0.431,0.250,0.169
'0:00.946',0.124,0.146,0.022,-0.134,0.051,0.084,-0.013,0.550,0.513,0.431,0.250,0.169
'0:00.947',0.125,0.144,0.019,-0.134,0.053,0.081,-0.019,0.550,0.513,0.431,0.256,0.169
'0:00.948',0.128,0.147,0.019,-0.138,0.054,0.082,-0.019,0.550,0.509,0.434,0.262,0.172
'0:00.949',0.134,0.153,0.019,-0.144,0.058,0.086,-0.019,0.556,0.506,0.438,0.262,0.169
'0:00.950',0.136,0.153,0.017,-0.144,0.059,0.085,-0.019,0.550,0.506,0.438,0.259,0.166
'0:00.951',0.138,0.153,0.016,-0.145,0.061,0.084,-0.019,0.550,0.506,0.438,0.256,0.163
'0:00.952',0.138,0.151,0.014,-0.144,0.062,0.082,-0.022,0.556,0.513,0.441,0.262,0.169
'0:00.953',0.141,0.153,0.012,-0.147,0.064,0.082,-0.025,0.556,0.513,0.438,0.262,0.169
'0:00.954',0.139,0.158,0.019,-0.149,0.060,0.088,-0.022,0.559,0.513,0.438,0.262,0.169
'0:00.955',0.138,0.156,0.019,-0.147,0.059,0.087,-0.019,0.563,0.513,0.438,0.262,0.169
'0:00.956',0.139,0.158,0.018,-0.148,0.061,0.087,-0.022,0.559,0.509,0.438,0.259,0.169
'0:00.957',0.138,0.159,0.022,-0.148,0.058,0.091,-0.025,0.563,0.506,0.438,0.256,0.169
'0:00.958',0.139,0.159,0.021,-0.149,0.059,0.090,-0.022,0.559,0.516,0.434,0.256,0.169
'0:00.959',0.138,0.159,0.022,-0.148,0.058,0.091,-0.019,0.556,0.519,0.438,0.262,0.169
'0:00.960',0.138,0.163,0.025,-0.150,0.056,0.094,-0.019,0.563,0.522,0.444,0.266,0.175
'0:00.961',0.138,0.159,0.022,-0.148,0.058,0.091,-0.019,0.569,0.525,0.450,0.269,0.175
'0:00.962',0.134,0.158,0.024,-0.146,0.055,0.091,-0.022,0.566,0.522,0.450,0.269,0.175
'0:00.963',0.134,0.159,0.025,-0.147,0.054,0.092,-0.025,0.563,0.519,0.450,0.269,0.175
'0:00.964',0.134,0.159,0.025,-0.147,0.054,0.092,-0.025,0.563,0.522,0.444,0.269,0.172
'0:00.965',0.128,0.159,0.031,-0.144,0.048,0.095,-0.025,0.563,0.525,0.444,0.269,0.169
'0:00.966',0.131,0.161,0.029,-0.146,0.051,0.095,-0.025,0.563,0.522,0.447,0.269,0.172
'0:00.967',0.134,0.163,0.028,-0.148,0.053,0.095,-0.025,0.563,0.519,0.444,0.269,0.175
'0:00.968',0.138,0.167,0.029,-0.152,0.054,0.098,-0.025,0.566,0.519,0.450,0.266,0.175
'0:00.969',0.134,0.169,0.034,-0.151,0.050,0.101,-0.025,0.569,0.519,0.444,0.262,0.175
'0:00.970',0.134,0.173,0.039,-0.154,0.048,0.106,-0.025,0.569,0.525,0.447,0.262,0.175
'0:00.971',0.134,0.175,0.041,-0.154,0.047,0.107,-0.025,0.563,0.525,0.450,0.262,0.175
'0:00.972',0.136,0.174,0.038,-0.154,0.049,0.106,-0.025,0.563,0.528,0.447,0.262,0.178
'0:00.973',0.134,0.172,0.037,-0.153,0.048,0.104,-0.025,0.563,0.531,0.450,0.262,0.181
'0:00.974',0.134,0.174,0.039,-0.154,0.048,0.106,-0.025,0.563,0.525,0.447,0.266,0.184
'0:00.975',0.134,0.172,0.037,-0.153,0.048,0.104,-0.025,0.569,0.519,0.450,0.269,0.181
'0:00.976',0.136,0.175,0.039,-0.155,0.048,0.107,-0.022,0.563,0.522,0.450,0.262,0.181
'0:00.977',0.138,0.178,0.041,-0.158,0.048,0.109,-0.025,0.563,0.519,0.450,0.262,0.181
'0:00.978',0.134,0.179,0.045,-0.157,0.044,0.112,-0.025,0.556,0.519,0.447,0.262,0.181
'0:00.979',0.134,0.184,0.050,-0.159,0.042,0.117,-0.019,0.550,0.513,0.444,0.262,0.181
'0:00.980',0.131,0.188,0.056,-0.159,0.038,0.122,-0.019,0.547,0.506,0.444,0.256,0.181
'0:00.981',0.128,0.184,0.056,-0.156,0.036,0.120,-0.019,0.544,0.506,0.438,0.256,0.175
'0:00.982',0.128,0.184,0.056,-0.156,0.036,0.120,-0.022,0.537,0.500,0.431,0.259,0.172
'0:00.983',0.128,0.184,0.056,-0.156,0.036,0.120,-0.025,0.537,0.488,0.425,0.256,0.169
'0:00.984',0.124,0.186,0.062,-0.154,0.031,0.124,-0.016,0.528,0.484,0.419,0.259,0.172
'0:00.985',0.122,0.184,0.063,-0.153,0.029,0.123,-0.013,0.525,0.481,0.413,0.256,0.169
'0:00.986',0.119,0.184,0.066,-0.151,0.026,0.125,-0.016,0.522,0.475,0.406,0.253,0.172
'0:00.987',0.116,0.184,0.069,-0.150,0.023,0.126,-0.013,0.519,0.469,0.400,0.256,0.175
'0:00.988',0.114,0.183,0.069,-0.149,0.023,0.126,-0.009,0.509,0.469,0.394,0.247,0.169
'0:00.989',0.109,0.181,0.072,-0.145,0.019,0.126,-0.006,0.506,0.463,0.388,0.244,0.169
'0:00.990',0.109,0.181,0.072,-0.145,0.019,0.126,-0.009,0.491,0.453,0.384,0.238,0.159
'0:00.991',0.106,0.181,0.075,-0.144,0.016,0.128,-0.013,0.481,0.438,0.375,0.231,0.150
'0:00.992',0.106,0.179,0.073,-0.143,0.016,0.126,-0.006,0.475,0.431,0.366,0.222,0.150
'0:00.993',0.106,0.178,0.072,-0.142,0.017,0.125,-0.006,0.463,0.419,0.356,0.219,0.150
'0:00.994',0.104,0.175,0.071,-0.139,0.017,0.123,-0.006,0.459,0.409,0.344,0.216,0.144
'0:00.995',0.103,0.175,0.072,-0.139,0.016,0.123,-0.006,0.450,0.400,0.338,0.213,0.144
'0:00.996',0.102,0.175,0.073,-0.138,0.014,0.124,0.003,0.444,0.394,0.328,0.209,0.141
'0:00.997',0.094,0.172,0.078,-0.133,0.008,0.125,0.006,0.431,0.388,0.319,0.206,0.137
'0:00.998',0.092,0.166,0.074,-0.129,0.009,0.119,0.016,0.425,0.384,0.313,0.206,0.137
'0:00.999',0.091,0.166,0.075,-0.128,0.008,0.120,0.019,0.412,0.375,0.306,0.200,0.131
'0:01.000',0.086,0.164,0.077,-0.125,0.004,0.121,0.019,0.403,0.356,0.300,0.194,0.131
'0:01.001',0.084,0.163,0.078,-0.123,0.003,0.120,0.019,0.394,0.344,0.288,0.187,0.125
'0:01.002',0.077,0.161,0.084,-0.119,-0.004,0.123,0.019,0.381,0.334,0.284,0.181,0.128
'0:01.003',0.069,0.153,0.084,-0.111,-0.008,0.119,0.025,0.375,0.325,0.275,0.175,0.125
'0:01.004',0.070,0.150,0.080,-0.110,-0.005,0.115,0.022,0.362,0.313,0.262,0.175,0.112
'0:01.005',0.069,0.150,0.081,-0.109,-0.006,0.116,0.019,0.350,0.300,0.256,0.169,0.106
'0:01.006',0.059,0.147,0.087,-0.103,-0.014,0.117,0.019,0.341,0.291,0.247,0.163,0.103
'0:01.007',0.056,0.141,0.084,-0.098,-0.014,0.112,0.025,0.331,0.288,0.237,0.156,0.100
'0:01.008',0.054,0.134,0.080,-0.094,-0.013,0.107,0.022,0.322,0.272,0.225,0.147,0.097
'0:01.009',0.053,0.128,0.075,-0.091,-0.011,0.101,0.019,0.306,0.256,0.212,0.137,0.087
'0:01.010',0.054,0.126,0.072,-0.090,-0.009,0.099,0.022,0.291,0.250,0.200,0.131,0.078
'0:01.011',0.053,0.125,0.072,-0.089,-0.009,0.098,0.025,0.275,0.238,0.187,0.119,0.075
'0:01.012',0.056,0.122,0.066,-0.089,-0.005,0.094,0.025,0.269,0.225,0.178,0.116,0.066
'0:01.013',0.050,0.122,0.072,-0.086,-0.011,0.097,0.025,0.256,0.219,0.169,0.106,0.063
'0:01.014',0.049,0.122,0.073,-0.085,-0.013,0.098,0.025,0.241,0.206,0.156,0.097,0.056
'0:01.015',0.047,0.116,0.069,-0.081,-0.011,0.092,0.031,0.231,0.194,0.150,0.087,0.050
'0:01.016',0.041,0.108,0.068,-0.074,-0.014,0.087,0.031,0.219,0.181,0.134,0.084,0.053
'0:01.017',0.031,0.103,0.072,-0.067,-0.021,0.087,0.031,0.213,0.175,0.125,0.081,0.050
'0:01.018',0.030,0.097,0.067,-0.063,-0.019,0.082,0.034,0.206,0.166,0.125,0.078,0.044
'0:01.019',0.025,0.091,0.066,-0.058,-0.021,0.078,0.037,0.200,0.163,0.119,0.075,0.044
'0:01.020',0.022,0.088,0.066,-0.054,-0.022,0.076,0.041,0.184,0.147,0.109,0.069,0.037
'0:01.021',0.016,0.084,0.069,-0.050,-0.027,0.076,0.044,0.175,0.131,0.100,0.063,0.037
'0:01.022',0.011,0.081,0.070,-0.046,-0.029,0.076,0.044,0.166,0.125,0.094,0.053,0.031
'0:01.023',0.009,0.078,0.069,-0.044,-0.030,0.073,0.044,0.156,0.113,0.087,0.050,0.025
'0:01.024',0.007,0.072,0.064,-0.039,-0.029,0.068,0.041,0.144,0.103,0.078,0.047,0.019
'0:01.025',0.009,0.066,0.056,-0.038,-0.024,0.061,0.037,0.131,0.094,0.069,0.044,0.019
'0:01.026',0.005,0.059,0.054,-0.032,-0.025,0.057,0.044,0.119,0.084,0.062,0.044,0.022
'0:01.027',0.003,0.056,0.053,-0.029,-0.025,0.054,0.050,0.113,0.081,0.056,0.038,0.019
'0:01.028',0.001,0.050,0.049,-0.026,-0.024,0.049,0.050,0.103,0.075,0.050,0.028,0.019
'0:01.029',-0.003,0.047,0.050,-0.022,-0.027,0.048,0.050,0.094,0.069,0.044,0.019,0.012
'0:01.030',-0.006,0.041,0.047,-0.017,-0.027,0.044,0.050,0.084,0.063,0.034,0.019,0.003
'0:01.031',-0.006,0.034,0.041,-0.014,-0.024,0.037,0.050,0.081,0.050,0.025,0.012,0.000
'0:01.032',-0.009,0.031,0.041,-0.011,-0.025,0.036,0.047,0.078,0.044,0.019,0.006,0.000
'0:01.033',-0.013,0.028,0.041,-0.007,-0.027,0.034,0.044,0.069,0.038,0.012,0.006,-0.006
'0:01.034',-0.013,0.028,0.041,-0.007,-0.027,0.034,0.044,0.056,0.025,0.006,0.000,-0.003
'0:01.035',-0.013,0.025,0.037,-0.006,-0.025,0.031,0.044,0.050,0.019,0.000,0.000,-0.006
'0:01.036',-0.016,0.022,0.037,-0.003,-0.027,0.029,0.047,0.041,0.006,-0.006,-0.006,-0.009
'0:01.037',-0.016,0.022,0.037,-0.003,-0.027,0.029,0.044,0.038,0.000,-0.012,-0.012,-0.019
'0:01.038',-0.014,0.022,0.036,-0.004,-0.026,0.029,0.041,0.028,-0.006,-0.016,-0.016,-0.019
'0:01.039',-0.013,0.022,0.034,-0.004,-0.024,0.028,0.037,0.019,-0.012,-0.025,-0.025,-0.019
'0:01.040',-0.013,0.016,0.028,-0.001,-0.021,0.022,0.037,0.012,-0.025,-0.031,-0.031,-0.025
'0:01.041',-0.016,0.012,0.028,0.002,-0.022,0.020,0.037,0.006,-0.031,-0.037,-0.031,-0.025
'0:01.042',-0.011,0.009,0.021,0.001,-0.016,0.015,0.041,-0.003,-0.034,-0.047,-0.041,-0.034
'0:01.043',-0.013,0.006,0.019,0.003,-0.016,0.012,0.044,-0.006,-0.037,-0.050,-0.044,-0.038
'0:01.044',-0.019,0.002,0.021,0.009,-0.020,0.011,0.044,-0.012,-0.044,-0.056,-0.041,-0.041
'0:01.045',-0.025,-0.003,0.022,0.014,-0.024,0.009,0.044,-0.019,-0.044,-0.056,-0.044,-0.044
'0:01.046',-0.026,-0.006,0.020,0.016,-0.023,0.007,0.044,-0.019,-0.050,-0.062,-0.044,-0.044
'0:01.047',-0.028,-0.009,0.019,0.019,-0.024,0.004,0.044,-0.025,-0.050,-0.062,-0.044,-0.044
'0:01.048',-0.031,-0.012,0.019,0.022,-0.025,0.003,0.037,-0.031,-0.059,-0.062,-0.044,-0.047
'0:01.049',-0.031,-0.016,0.016,0.024,-0.024,0.000,0.037,-0.031,-0.062,-0.069,-0.050,-0.044
'0:01.050',-0.027,-0.016,0.011,0.021,-0.019,-0.002,0.034,-0.038,-0.066,-0.078,-0.047,-0.044
'0:01.051',-0.028,-0.012,0.016,0.021,-0.022,0.001,0.031,-0.038,-0.062,-0.081,-0.050,-0.044
'0:01.052',-0.031,-0.016,0.016,0.024,-0.024,0.000,0.034,-0.044,-0.069,-0.081,-0.053,-0.044
'0:01.053',-0.034,-0.016,0.019,0.025,-0.027,0.001,0.037,-0.044,-0.069,-0.081,-0.056,-0.050
'0:01.054',-0.033,-0.017,0.016,0.026,-0.024,-0.001,0.037,-0.050,-0.072,-0.087,-0.059,-0.050
'0:01.055',-0.034,-0.016,0.019,0.025,-0.027,0.001,0.037,-0.050,-0.081,-0.087,-0.062,-0.050
'0:01.056',-0.037,-0.014,0.023,0.026,-0.031,0.004,0.037,-0.050,-0.081,-0.087,-0.059,-0.050
'0:01.057',-0.037,-0.016,0.022,0.027,-0.030,0.003,0.037,-0.056,-0.081,-0.087,-0.056,-0.050
'0:01.058',-0.034,-0.017,0.017,0.026,-0.026,0.000,0.037,-0.053,-0.081,-0.087,-0.066,-0.047
'0:01.059',-0.034,-0.019,0.016,0.027,-0.025,-0.002,0.037,-0.062,-0.087,-0.094,-0.069,-0.044
'0:01.060',-0.037,-0.022,0.016,0.030,-0.027,-0.003,0.037,-0.059,-0.087,-0.094,-0.066,-0.053
'0:01.061',-0.034,-0.022,0.012,0.028,-0.024,-0.005,0.037,-0.062,-0.087,-0.094,-0.062,-0.056
'0:01.062',-0.037,-0.022,0.016,0.030,-0.027,-0.003,0.034,-0.066,-0.087,-0.097,-0.062,-0.059
'0:01.063',-0.037,-0.022,0.016,0.030,-0.027,-0.003,0.031,-0.069,-0.087,-0.100,-0.062,-0.063
'0:01.064',-0.037,-0.024,0.014,0.031,-0.026,-0.005,0.034,-0.069,-0.091,-0.100,-0.072,-0.066
'0:01.065',-0.037,-0.025,0.012,0.031,-0.025,-0.006,0.037,-0.069,-0.100,-0.100,-0.069,-0.063
'0:01.066',-0.042,-0.031,0.011,0.037,-0.026,-0.011,0.037,-0.069,-0.100,-0.097,-0.066,-0.059
'0:01.067',-0.044,-0.034,0.009,0.039,-0.027,-0.012,0.037,-0.069,-0.100,-0.094,-0.069,-0.063
'0:01.068',-0.042,-0.028,0.014,0.035,-0.028,-0.008,0.037,-0.066,-0.097,-0.100,-0.072,-0.063
'0:01.069',-0.044,-0.031,0.012,0.037,-0.028,-0.009,0.037,-0.069,-0.100,-0.100,-0.075,-0.063
'0:01.070',-0.041,-0.031,0.009,0.036,-0.025,-0.011,0.041,-0.072,-0.100,-0.100,-0.072,-0.063
'0:01.071',-0.037,-0.034,0.003,0.036,-0.021,-0.016,0.044,-0.075,-0.094,-0.100,-0.069,-0.063
'0:01.072',-0.036,-0.031,0.005,0.034,-0.021,-0.013,0.041,-0.078,-0.103,-0.103,-0.072,-0.063
'0:01.073',-0.034,-0.031,0.003,0.033,-0.019,-0.014,0.037,-0.081,-0.100,-0.106,-0.075,-0.063
'0:01.074',-0.034,-0.027,0.007,0.031,-0.021,-0.010,0.037,-0.081,-0.106,-0.103,-0.075,-0.063
'0:01.075',-0.034,-0.025,0.009,0.030,-0.022,-0.008,0.037,-0.081,-0.106,-0.106,-0.075,-0.069
'0:01.076',-0.034,-0.029,0.005,0.032,-0.020,-0.012,0.037,-0.081,-0.103,-0.106,-0.075,-0.066
'0:01.077',-0.034,-0.031,0.003,0.033,-0.019,-0.014,0.037,-0.081,-0.100,-0.106,-0.075,-0.069
'0:01.078',-0.033,-0.034,-0.001,0.034,-0.016,-0.018,0.041,-0.078,-0.100,-0.112,-0.078,-0.069
'0:01.079',-0.034,-0.034,0.000,0.034,-0.018,-0.017,0.044,-0.075,-0.100,-0.112,-0.081,-0.069
'0:01.080',-0.036,-0.036,0.000,0.036,-0.018,-0.018,0.041,-0.075,-0.100,-0.112,-0.081,-0.072
'0:01.081',-0.034,-0.037,-0.003,0.036,-0.016,-0.021,0.037,-0.075,-0.100,-0.119,-0.081,-0.075
'0:01.082',-0.034,-0.037,-0.003,0.036,-0.016,-0.021,0.037,-0.075,-0.103,-0.116,-0.081,-0.075
'0:01.083',-0.037,-0.037,0.000,0.037,-0.019,-0.019,0.037,-0.075,-0.106,-0.112,-0.081,-0.075
'0:01.084',-0.039,-0.034,0.004,0.037,-0.022,-0.015,0.037,-0.075,-0.106,-0.112,-0.081,-0.075
'0:01.085',-0.037,-0.034,0.003,0.036,-0.021,-0.016,0.031,-0.075,-0.106,-0.112,-0.081,-0.075
'0:01.086',-0.037,-0.036,0.001,0.037,-0.019,-0.017,0.034,-0.081,-0.106,-0.116,-0.081,-0.072
'0:01.087',-0.037,-0.034,0.003,0.036,-0.021,-0.016,0.031,-0.075,-0.106,-0.119,-0.081,-0.069
'0:01.088',-0.036,-0.037,-0.001,0.037,-0.018,-0.019,0.028,-0.081,-0.109,-0.128,-0.084,-0.078
'0:01.089',-0.037,-0.037,0.000,0.037,-0.019,-0.019,0.025,-0.081,-0.112,-0.125,-0.087,-0.075
'0:01.090',-0.039,-0.036,0.002,0.037,-0.021,-0.017,0.025,-0.084,-0.112,-0.125,-0.084,-0.075
'0:01.091',-0.041,-0.034,0.006,0.037,-0.024,-0.014,0.025,-0.088,-0.112,-0.125,-0.081,-0.075
'0:01.092',-0.041,-0.037,0.003,0.039,-0.022,-0.017,0.028,-0.084,-0.122,-0.125,-0.081,-0.075
'0:01.093',-0.041,-0.037,0.003,0.039,-0.022,-0.017,0.031,-0.088,-0.119,-0.125,-0.081,-0.075
'0:01.094',-0.041,-0.036,0.004,0.039,-0.023,-0.016,0.034,-0.084,-0.116,-0.122,-0.084,-0.075
'0:01.095',-0.037,-0.034,0.003,0.036,-0.021,-0.016,0.037,-0.088,-0.119,-0.119,-0.087,-0.075
'0:01.096',-0.041,-0.034,0.006,0.037,-0.024,-0.014,0.034,-0.088,-0.119,-0.119,-0.087,-0.078
'0:01.097',-0.041,-0.034,0.006,0.037,-0.024,-0.014,0.037,-0.088,-0.119,-0.119,-0.087,-0.081
'0:01.098',-0.041,-0.033,0.007,0.037,-0.024,-0.013,0.041,-0.091,-0.112,-0.119,-0.087,-0.075
'0:01.099',-0.037,-0.031,0.006,0.034,-0.022,-0.012,0.037,-0.094,-0.119,-0.119,-0.087,-0.075
'0:01.100',-0.039,-0.033,0.006,0.036,-0.023,-0.014,0.037,-0.094,-0.119,-0.119,-0.087,-0.078
'0:01.101',-0.034,-0.028,0.006,0.031,-0.021,-0.011,0.037,-0.094,-0.119,-0.119,-0.087,-0.075
'0:01.102',-0.034,-0.029,0.005,0.032,-0.020,-0.012,0.034,-0.094,-0.119,-0.116,-0.087,-0.075
'0:01.103',-0.034,-0.031,0.003,0.033,-0.019,-0.014,0.031,-0.094,-0.119,-0.119,-0.087,-0.075
'0:01.104',-0.034,-0.031,0.003,0.033,-0.019,-0.014,0.031,-0.094,-0.119,-0.119,-0.091,-0.084
'0:01.105',-0.034,-0.034,0.000,0.034,-0.018,-0.017,0.031,-0.094,-0.119,-0.119,-0.094,-0.081
'0:01.106',-0.034,-0.034,0.000,0.034,-0.018,-0.017,0.034,-0.094,-0.119,-0.122,-0.094,-0.078
'0:01.107',-0.034,-0.034,0.000,0.034,-0.018,-0.017,0.037,-0.094,-0.119,-0.125,-0.094,-0.075
'0:01.108',-0.037,-0.036,0.002,0.037,-0.020,-0.017,0.037,-0.094,-0.119,-0.119,-0.094,-0.072
'0:01.109',-0.037,-0.041,-0.003,0.039,-0.018,-0.022,0.037,-0.094,-0.119,-0.125,-0.094,-0.069
'0:01.110',-0.034,-0.044,-0.009,0.039,-0.013,-0.027,0.037,-0.091,-0.116,-0.125,-0.094,-0.069
'0:01.111',-0.034,-0.041,-0.006,0.037,-0.014,-0.024,0.037,-0.094,-0.112,-0.125,-0.100,-0.069
'0:01.112',-0.037,-0.042,-0.005,0.040,-0.016,-0.024,0.041,-0.097,-0.122,-0.125,-0.091,-0.066
'0:01.113',-0.037,-0.041,-0.003,0.039,-0.018,-0.022,0.044,-0.094,-0.125,-0.125,-0.094,-0.069
'0:01.114',-0.041,-0.042,-0.001,0.041,-0.020,-0.022,0.044,-0.100,-0.122,-0.122,-0.094,-0.063
'0:01.115',-0.047,-0.044,0.003,0.046,-0.025,-0.021,0.044,-0.100,-0.119,-0.119,-0.094,-0.063
'0:01.116',-0.044,-0.047,-0.003,0.046,-0.021,-0.025,0.044,-0.103,-0.119,-0.122,-0.097,-0.072
'0:01.117',-0.044,-0.044,0.000,0.044,-0.022,-0.022,0.044,-0.106,-0.119,-0.131,-0.100,-0.075
'0:01.118',-0.041,-0.039,0.001,0.040,-0.021,-0.019,0.041,-0.106,-0.122,-0.131,-0.100,-0.075
'0:01.119',-0.037,-0.034,0.003,0.036,-0.021,-0.016,0.037,-0.106,-0.125,-0.131,-0.100,-0.081
'0:01.120',-0.034,-0.034,0.000,0.034,-0.018,-0.017,0.037,-0.106,-0.125,-0.128,-0.100,-0.087
'0:01.121',-0.034,-0.034,0.000,0.034,-0.018,-0.017,0.037,-0.106,-0.125,-0.125,-0.100,-0.087
'0:01.122',-0.037,-0.037,0.000,0.037,-0.019,-0.019,0.037,-0.112,-0.131,-0.125,-0.100,-0.084
'0:01.123',-0.041,-0.041,0.000,0.041,-0.021,-0.021,0.037,-0.112,-0.131,-0.125,-0.100,-0.081
'0:01.124',-0.045,-0.042,0.003,0.044,-0.024,-0.019,0.037,-0.103,-0.131,-0.125,-0.097,-0.078
'0:01.125',-0.047,-0.044,0.003,0.046,-0.025,-0.021,0.037,-0.106,-0.131,-0.125,-0.100,-0.075
'0:01.126',-0.044,-0.050,-0.006,0.047,-0.019,-0.028,0.034,-0.100,-0.131,-0.122,-0.100,-0.078
'0:01.127',-0.047,-0.053,-0.006,0.050,-0.021,-0.030,0.031,-0.100,-0.131,-0.125,-0.094,-0.081
'0:01.128',-0.046,-0.049,-0.003,0.047,-0.021,-0.026,0.037,-0.094,-0.131,-0.128,-0.100,-0.084
'0:01.129',-0.044,-0.050,-0.006,0.047,-0.019,-0.028,0.037,-0.094,-0.131,-0.131,-0.100,-0.087
'0:01.130',-0.043,-0.050,-0.007,0.046,-0.018,-0.029,0.037,-0.097,-0.137,-0.131,-0.100,-0.081
'0:01.131',-0.041,-0.050,-0.009,0.046,-0.016,-0.030,0.037,-0.100,-0.137,-0.131,-0.100,-0.075
'0:01.132',-0.037,-0.050,-0.013,0.044,-0.013,-0.031,0.041,-0.103,-0.137,-0.134,-0.100,-0.075
'0:01.133',-0.034,-0.050,-0.016,0.042,-0.009,-0.033,0.037,-0.106,-0.137,-0.137,-0.100,-0.075
'0:01.134',-0.034,-0.050,-0.016,0.042,-0.009,-0.033,0.037,-0.103,-0.134,-0.141,-0.097,-0.075
'0:01.135',-0.034,-0.050,-0.016,0.042,-0.009,-0.033,0.037,-0.106,-0.137,-0.144,-0.094,-0.075
'0:01.136',-0.034,-0.054,-0.020,0.044,-0.008,-0.037,0.044,-0.106,-0.137,-0.144,-0.097,-0.078
'0:01.137',-0.034,-0.053,-0.019,0.044,-0.008,-0.036,0.044,-0.106,-0.137,-0.144,-0.100,-0.081
'0:01.138',-0.037,-0.052,-0.014,0.045,-0.012,-0.033,0.037,-0.106,-0.141,-0.144,-0.100,-0.084
'0:01.139',-0.041,-0.053,-0.013,0.047,-0.014,-0.033,0.037,-0.106,-0.144,-0.144,-0.100,-0.087
'0:01.140',-0.042,-0.053,-0.011,0.047,-0.016,-0.033,0.037,-0.109,-0.144,-0.144,-0.100,-0.087
'0:01.141',-0.047,-0.053,-0.006,0.050,-0.021,-0.030,0.037,-0.106,-0.144,-0.150,-0.100,-0.087
'0:01.142',-0.047,-0.056,-0.009,0.052,-0.019,-0.033,0.037,-0.106,-0.144,-0.150,-0.100,-0.084
'0:01.143',-0.047,-0.053,-0.006,0.050,-0.021,-0.030,0.037,-0.106,-0.144,-0.150,-0.100,-0.081
'0:01.144',-0.044,-0.053,-0.009,0.049,-0.018,-0.031,0.037,-0.109,-0.147,-0.150,-0.100,-0.081
'0:01.145',-0.047,-0.053,-0.006,0.050,-0.021,-0.030,0.037,-0.112,-0.150,-0.150,-0.106,-0.081
'0:01.146',-0.044,-0.056,-0.013,0.050,-0.016,-0.034,0.034,-0.116,-0.159,-0.156,-0.106,-0.078
'0:01.147',-0.041,-0.056,-0.016,0.049,-0.013,-0.036,0.031,-0.119,-0.163,-0.150,-0.106,-0.075
'0:01.148',-0.041,-0.056,-0.016,0.049,-0.013,-0.036,0.037,-0.125,-0.159,-0.156,-0.100,-0.078
'0:01.149',-0.041,-0.056,-0.016,0.049,-0.013,-0.036,0.031,-0.125,-0.156,-0.156,-0.106,-0.081
'0:01.150',-0.036,-0.052,-0.016,0.044,-0.011,-0.034,0.041,-0.125,-0.166,-0.156,-0.109,-0.078
'0:01.151',-0.031,-0.047,-0.016,0.039,-0.008,-0.031,0.037,-0.125,-0.169,-0.156,-0.112,-0.081
'0:01.152',-0.034,-0.050,-0.016,0.042,-0.009,-0.033,0.037,-0.125,-0.169,-0.153,-0.109,-0.081
'0:01.153',-0.034,-0.047,-0.013,0.041,-0.011,-0.030,0.037,-0.125,-0.169,-0.156,-0.112,-0.081
'0:01.154',-0.034,-0.050,-0.016,0.042,-0.009,-0.033,0.037,-0.125,-0.169,-0.159,-0.106,-0.081
'0:01.155',-0.034,-0.053,-0.019,0.044,-0.008,-0.036,0.037,-0.125,-0.175,-0.162,-0.112,-0.081
'0:01.156',-0.042,-0.057,-0.016,0.050,-0.013,-0.037,0.034,-0.134,-0.175,-0.162,-0.116,-0.084
'0:01.157',-0.044,-0.059,-0.016,0.052,-0.014,-0.037,0.031,-0.137,-0.175,-0.162,-0.119,-0.087
'0:01.158',-0.047,-0.059,-0.013,0.053,-0.018,-0.036,0.031,-0.134,-0.172,-0.162,-0.119,-0.087
'0:01.159',-0.044,-0.062,-0.019,0.053,-0.013,-0.041,0.031,-0.137,-0.169,-0.162,-0.119,-0.087
'0:01.160',-0.047,-0.062,-0.016,0.055,-0.016,-0.039,0.031,-0.137,-0.169,-0.159,-0.119,-0.087
'0:01.161',-0.044,-0.062,-0.019,0.053,-0.013,-0.041,0.031,-0.137,-0.175,-0.156,-0.119,-0.087
'0:01.162',-0.048,-0.064,-0.016,0.056,-0.016,-0.040,0.034,-0.137,-0.175,-0.162,-0.119,-0.084
'0:01.163',-0.050,-0.069,-0.019,0.059,-0.016,-0.044,0.037,-0.137,-0.175,-0.162,-0.119,-0.081
'0:01.164',-0.049,-0.066,-0.017,0.057,-0.016,-0.041,0.034,-0.141,-0.175,-0.166,-0.116,-0.081
'0:01.165',-0.047,-0.062,-0.016,0.055,-0.016,-0.039,0.031,-0.137,-0.175,-0.175,-0.119,-0.087
'0:01.166',-0.041,-0.064,-0.023,0.053,-0.009,-0.044,0.034,-0.141,-0.178,-0.175,-0.119,-0.091
'0:01.167',-0.041,-0.066,-0.025,0.053,-0.008,-0.046,0.031,-0.144,-0.175,-0.175,-0.119,-0.087
'0:01.168',-0.042,-0.064,-0.023,0.053,-0.010,-0.044,0.037,-0.141,-0.175,-0.175,-0.122,-0.091
'0:01.169',-0.044,-0.066,-0.022,0.055,-0.011,-0.044,0.037,-0.137,-0.175,-0.175,-0.125,-0.087
'0:01.170',-0.044,-0.069,-0.025,0.056,-0.009,-0.047,0.037,-0.141,-0.175,-0.172,-0.125,-0.087
'0:01.171',-0.047,-0.069,-0.022,0.058,-0.013,-0.046,0.037,-0.144,-0.181,-0.169,-0.125,-0.087
'0:01.172',-0.044,-0.066,-0.022,0.055,-0.011,-0.044,0.034,-0.147,-0.184,-0.178,-0.122,-0.091
'0:01.173',-0.044,-0.066,-0.022,0.055,-0.011,-0.044,0.037,-0.144,-0.187,-0.181,-0.125,-0.094
'0:01.174',-0.048,-0.070,-0.022,0.059,-0.013,-0.046,0.047,-0.147,-0.184,-0.178,-0.125,-0.094
'0:01.175',-0.047,-0.072,-0.025,0.059,-0.011,-0.049,0.044,-0.156,-0.181,-0.175,-0.125,-0.094
'0:01.176',-0.046,-0.075,-0.029,0.061,-0.008,-0.053,0.041,-0.150,-0.187,-0.175,-0.125,-0.094
'0:01.177',-0.044,-0.075,-0.031,0.059,-0.006,-0.053,0.037,-0.156,-0.187,-0.181,-0.125,-0.094
'0:01.178',-0.044,-0.078,-0.034,0.061,-0.005,-0.056,0.034,-0.156,-0.191,-0.181,-0.128,-0.097
'0:01.179',-0.044,-0.081,-0.037,0.063,-0.003,-0.059,0.031,-0.156,-0.194,-0.175,-0.131,-0.100
'0:01.180',-0.047,-0.081,-0.034,0.064,-0.006,-0.058,0.031,-0.153,-0.200,-0.184,-0.131,-0.097
'0:01.181',-0.047,-0.081,-0.034,0.064,-0.006,-0.058,0.031,-0.156,-0.194,-0.187,-0.131,-0.100
'0:01.182',-0.043,-0.081,-0.039,0.062,-0.002,-0.060,0.031,-0.159,-0.194,-0.191,-0.134,-0.094
'0:01.183',-0.044,-0.081,-0.037,0.063,-0.003,-0.059,0.031,-0.162,-0.200,-0.194,-0.137,-0.094
'0:01.184',-0.041,-0.080,-0.039,0.061,-0.001,-0.060,0.031,-0.166,-0.200,-0.197,-0.134,-0.094
'0:01.185',-0.041,-0.078,-0.037,0.059,-0.002,-0.058,0.031,-0.169,-0.200,-0.194,-0.131,-0.100
'0:01.186',-0.044,-0.079,-0.036,0.062,-0.004,-0.058,0.031,-0.166,-0.206,-0.191,-0.134,-0.097
'0:01.187',-0.044,-0.081,-0.037,0.063,-0.003,-0.059,0.031,-0.162,-0.200,-0.187,-0.131,-0.094
'0:01.188',-0.045,-0.081,-0.036,0.063,-0.004,-0.059,0.031,-0.162,-0.203,-0.187,-0.134,-0.094
'0:01.189',-0.047,-0.081,-0.034,0.064,-0.006,-0.058,0.031,-0.169,-0.200,-0.187,-0.137,-0.094
'0:01.190',-0.048,-0.080,-0.032,0.064,-0.008,-0.056,0.031,-0.162,-0.200,-0.197,-0.137,-0.097
'0:01.191',-0.047,-0.078,-0.031,0.063,-0.008,-0.055,0.031,-0.169,-0.200,-0.200,-0.137,-0.100
'0:01.192',-0.050,-0.077,-0.027,0.064,-0.012,-0.052,0.031,-0.172,-0.203,-0.200,-0.134,-0.100
'0:01.193',-0.050,-0.075,-0.025,0.063,-0.013,-0.050,0.031,-0.175,-0.212,-0.200,-0.131,-0.100
'0:01.194',-0.047,-0.078,-0.031,0.063,-0.008,-0.055,0.031,-0.175,-0.212,-0.197,-0.141,-0.100
'0:01.195',-0.044,-0.078,-0.034,0.061,-0.005,-0.056,0.031,-0.175,-0.212,-0.194,-0.137,-0.100
'0:01.196',-0.044,-0.078,-0.034,0.061,-0.005,-0.056,0.031,-0.178,-0.212,-0.194,-0.134,-0.100
'0:01.197',-0.044,-0.078,-0.034,0.061,-0.005,-0.056,0.031,-0.175,-0.212,-0.194,-0.137,-0.100
'0:01.198',-0.045,-0.078,-0.033,0.062,-0.006,-0.056,0.034,-0.175,-0.209,-0.200,-0.137,-0.100
'0:01.199',-0.047,-0.078,-0.031,0.063,-0.008,-0.055,0.031,-0.175,-0.212,-0.200,-0.137,-0.100
'0:01.200',-0.049,-0.081,-0.033,0.065,-0.008,-0.057,0.028,-0.175,-0.216,-0.197,-0.137,-0.100
'0:01.201',-0.050,-0.081,-0.031,0.066,-0.009,-0.056,0.025,-0.175,-0.219,-0.194,-0.137,-0.100
'0:01.202',-0.051,-0.084,-0.033,0.068,-0.009,-0.059,0.025,-0.175,-0.216,-0.194,-0.131,-0.103
'0:01.203',-0.050,-0.081,-0.031,0.066,-0.009,-0.056,0.025,-0.175,-0.212,-0.200,-0.137,-0.106
'0:01.204',-0.047,-0.083,-0.036,0.065,-0.006,-0.060,0.022,-0.181,-0.222,-0.203,-0.141,-0.103
'0:01.205',-0.041,-0.081,-0.041,0.061,0.000,-0.061,0.019,-0.181,-0.219,-0.206,-0.144,-0.106
'0:01.206',-0.044,-0.084,-0.041,0.064,-0.002,-0.062,0.019,-0.184,-0.216,-0.209,-0.141,-0.097
'0:01.207',-0.044,-0.088,-0.044,0.066,0.000,-0.066,0.019,-0.187,-0.219,-0.212,-0.137,-0.100
'0:01.208',-0.050,-0.089,-0.039,0.069,-0.006,-0.064,0.025,-0.187,-0.219,-0.212,-0.144,-0.100
'0:01.209',-0.050,-0.091,-0.041,0.071,-0.005,-0.066,0.031,-0.187,-0.219,-0.212,-0.144,-0.100
'0:01.210',-0.051,-0.091,-0.039,0.071,-0.006,-0.065,0.031,-0.191,-0.219,-0.212,-0.144,-0.100
'0:01.211',-0.053,-0.091,-0.037,0.072,-0.008,-0.064,0.031,-0.194,-0.219,-0.219,-0.144,-0.100
'0:01.212',-0.049,-0.089,-0.041,0.069,-0.004,-0.065,0.031,-0.194,-0.222,-0.219,-0.144,-0.103
'0:01.213',-0.050,-0.091,-0.041,0.071,-0.005,-0.066,0.031,-0.194,-0.225,-0.212,-0.144,-0.106
'0:01.214',-0.050,-0.089,-0.039,0.069,-0.006,-0.064,0.031,-0.194,-0.225,-0.212,-0.147,-0.106
'0:01.215',-0.050,-0.091,-0.041,0.071,-0.005,-0.066,0.031,-0.194,-0.225,-0.219,-0.150,-0.106
'0:01.216',-0.049,-0.093,-0.044,0.071,-0.003,-0.068,0.031,-0.194,-0.222,-0.219,-0.150,-0.106
'0:01.217',-0.050,-0.091,-0.041,0.071,-0.005,-0.066,0.031,-0.194,-0.225,-0.219,-0.150,-0.106
'0:01.218',-0.051,-0.095,-0.044,0.073,-0.004,-0.069,0.031,-0.194,-0.225,-0.216,-0.150,-0.103
'0:01.219',-0.053,-0.100,-0.047,0.077,-0.003,-0.074,0.031,-0.194,-0.225,-0.212,-0.150,-0.100
'0:01.220',-0.050,-0.099,-0.049,0.074,-0.001,-0.074,0.028,-0.200,-0.231,-0.216,-0.150,-0.100
'0:01.221',-0.053,-0.100,-0.047,0.077,-0.003,-0.074,0.025,-0.194,-0.231,-0.219,-0.150,-0.100
'0:01.222',-0.053,-0.097,-0.044,0.075,-0.005,-0.071,0.034,-0.200,-0.228,-0.216,-0.153,-0.103
'0:01.223',-0.050,-0.094,-0.044,0.072,-0.003,-0.069,0.031,-0.200,-0.231,-0.212,-0.156,-0.106
'0:01.224',-0.050,-0.097,-0.047,0.074,-0.002,-0.072,0.028,-0.203,-0.231,-0.212,-0.156,-0.106
'0:01.225',-0.050,-0.097,-0.047,0.074,-0.002,-0.072,0.025,-0.206,-0.231,-0.212,-0.156,-0.106
'0:01.226',-0.050,-0.098,-0.048,0.074,-0.001,-0.073,0.025,-0.197,-0.231,-0.212,-0.153,-0.109
'0:01.227',-0.050,-0.100,-0.050,0.075,0.000,-0.075,0.025,-0.200,-0.231,-0.212,-0.150,-0.106
'0:01.228',-0.050,-0.102,-0.052,0.076,0.001,-0.077,0.025,-0.203,-0.231,-0.222,-0.163,-0.112
'0:01.229',-0.053,-0.100,-0.047,0.077,-0.003,-0.074,0.025,-0.206,-0.231,-0.219,-0.163,-0.119
'0:01.230',-0.049,-0.103,-0.054,0.076,0.003,-0.079,0.022,-0.203,-0.234,-0.219,-0.163,-0.112
'0:01.231',-0.050,-0.103,-0.053,0.077,0.001,-0.078,0.019,-0.206,-0.237,-0.219,-0.163,-0.112
'0:01.232',-0.051,-0.101,-0.050,0.076,-0.001,-0.076,0.016,-0.203,-0.241,-0.216,-0.163,-0.109
'0:01.233',-0.050,-0.103,-0.053,0.077,0.001,-0.078,0.019,-0.200,-0.244,-0.219,-0.163,-0.106
'0:01.234',-0.049,-0.100,-0.051,0.074,0.001,-0.076,0.019,-0.209,-0.247,-0.222,-0.166,-0.116
'0:01.235',-0.047,-0.097,-0.050,0.072,0.001,-0.074,0.019,-0.206,-0.250,-0.225,-0.169,-0.112
'0:01.236',-0.048,-0.095,-0.047,0.072,-0.001,-0.071,0.019,-0.203,-0.250,-0.225,-0.169,-0.109
'0:01.237',-0.047,-0.097,-0.050,0.072,0.001,-0.074,0.019,-0.200,-0.250,-0.219,-0.169,-0.112
'0:01.238',-0.048,-0.094,-0.046,0.071,-0.001,-0.070,0.019,-0.206,-0.250,-0.225,-0.169,-0.112
'0:01.239',-0.050,-0.094,-0.044,0.072,-0.003,-0.069,0.019,-0.206,-0.250,-0.225,-0.169,-0.112
'0:01.240',-0.049,-0.091,-0.042,0.070,-0.004,-0.066,0.022,-0.203,-0.247,-0.222,-0.166,-0.116
'0:01.241',-0.047,-0.088,-0.041,0.067,-0.003,-0.064,0.025,-0.200,-0.244,-0.219,-0.163,-0.119
'0:01.242',-0.045,-0.094,-0.049,0.069,0.002,-0.071,0.025,-0.197,-0.241,-0.216,-0.166,-0.119
'0:01.243',-0.047,-0.094,-0.047,0.071,0.000,-0.071,0.019,-0.194,-0.244,-0.219,-0.163,-0.119
'0:01.244',-0.047,-0.097,-0.050,0.072,0.001,-0.074,0.025,-0.194,-0.244,-0.225,-0.163,-0.122
'0:01.245',-0.047,-0.100,-0.053,0.074,0.003,-0.077,0.019,-0.194,-0.244,-0.225,-0.163,-0.125
'0:01.246',-0.050,-0.103,-0.053,0.077,0.001,-0.078,0.025,-0.191,-0.244,-0.225,-0.156,-0.125
'0:01.247',-0.050,-0.106,-0.056,0.078,0.003,-0.081,0.025,-0.194,-0.250,-0.225,-0.156,-0.125
'0:01.248',-0.049,-0.111,-0.062,0.080,0.006,-0.086,0.022,-0.197,-0.247,-0.219,-0.156,-0.125
'0:01.249',-0.047,-0.112,-0.066,0.080,0.009,-0.089,0.025,-0.200,-0.250,-0.219,-0.156,-0.125
'0:01.250',-0.041,-0.116,-0.075,0.078,0.017,-0.096,0.025,-0.206,-0.256,-0.225,-0.166,-0.131
'0:01.251',-0.037,-0.122,-0.084,0.080,0.023,-0.103,0.025,-0.213,-0.256,-0.225,-0.169,-0.131
'0:01.252',-0.037,-0.125,-0.088,0.081,0.025,-0.106,0.022,-0.213,-0.253,-0.234,-0.172,-0.134
'0:01.253',-0.034,-0.125,-0.091,0.080,0.028,-0.108,0.019,-0.213,-0.250,-0.231,-0.169,-0.138
'0:01.254',-0.033,-0.123,-0.091,0.078,0.029,-0.107,0.019,-0.209,-0.250,-0.234,-0.172,-0.134
'0:01.255',-0.031,-0.122,-0.091,0.077,0.029,-0.106,0.019,-0.213,-0.256,-0.231,-0.175,-0.138
'0:01.256',-0.031,-0.120,-0.089,0.076,0.029,-0.104,0.019,-0.206,-0.247,-0.238,-0.178,-0.128
'0:01.257',-0.031,-0.116,-0.084,0.074,0.026,-0.100,0.019,-0.206,-0.244,-0.238,-0.175,-0.125
'0:01.258',-0.030,-0.114,-0.084,0.072,0.027,-0.099,0.022,-0.200,-0.244,-0.241,-0.175,-0.116
'0:01.259',-0.028,-0.109,-0.081,0.069,0.026,-0.096,0.025,-0.187,-0.244,-0.238,-0.175,-0.119
'0:01.260',-0.028,-0.103,-0.075,0.066,0.023,-0.089,0.022,-0.191,-0.241,-0.234,-0.163,-0.112
'0:01.261',-0.025,-0.097,-0.072,0.061,0.023,-0.084,0.019,-0.194,-0.244,-0.231,-0.163,-0.119
'0:01.262',-0.027,-0.081,-0.054,0.054,0.014,-0.068,0.028,-0.181,-0.237,-0.222,-0.153,-0.109
'0:01.263',-0.025,-0.066,-0.041,0.046,0.008,-0.053,0.031,-0.175,-0.231,-0.212,-0.150,-0.106
'0:01.264',-0.019,-0.047,-0.028,0.033,0.004,-0.037,0.041,-0.169,-0.222,-0.203,-0.141,-0.097
'0:01.265',-0.013,-0.028,-0.016,0.021,0.001,-0.022,0.050,-0.162,-0.212,-0.194,-0.131,-0.094
'0:01.266',-0.013,-0.022,-0.009,0.018,-0.002,-0.016,0.050,-0.159,-0.206,-0.191,-0.125,-0.084
'0:01.267',-0.013,-0.012,0.000,0.012,-0.006,-0.006,0.056,-0.156,-0.200,-0.187,-0.125,-0.081
'0:01.268',-0.008,-0.011,-0.003,0.010,-0.003,-0.008,0.053,-0.156,-0.200,-0.191,-0.128,-0.084
'0:01.269',-0.006,-0.006,0.000,0.006,-0.003,-0.003,0.056,-0.150,-0.194,-0.187,-0.125,-0.081
'0:01.270',-0.011,-0.012,-0.002,0.012,-0.004,-0.008,0.056,-0.150,-0.191,-0.184,-0.116,-0.081
'0:01.271',-0.009,-0.012,-0.003,0.011,-0.003,-0.008,0.056,-0.150,-0.187,-0.175,-0.112,-0.081
'0:01.272',-0.011,-0.014,-0.003,0.012,-0.004,-0.009,0.059,-0.144,-0.187,-0.175,-0.116,-0.078
'0:01.273',-0.013,-0.016,-0.003,0.014,-0.005,-0.009,0.056,-0.144,-0.194,-0.175,-0.112,-0.081
'0:01.274',-0.006,-0.017,-0.011,0.012,0.002,-0.014,0.059,-0.141,-0.187,-0.178,-0.116,-0.075
'0:01.275',-0.003,-0.019,-0.016,0.011,0.006,-0.017,0.050,-0.137,-0.187,-0.175,-0.112,-0.075
'0:01.276',0.003,-0.016,-0.019,0.006,0.011,-0.017,0.050,-0.134,-0.187,-0.178,-0.119,-0.069
'0:01.277',0.003,-0.019,-0.022,0.008,0.013,-0.021,0.050,-0.137,-0.187,-0.175,-0.119,-0.069
'0:01.278',0.002,-0.020,-0.022,0.009,0.012,-0.021,0.037,-0.137,-0.184,-0.178,-0.116,-0.069
'0:01.279',0.006,-0.019,-0.025,0.006,0.016,-0.022,0.031,-0.137,-0.187,-0.181,-0.119,-0.069
'0:01.280',0.019,-0.011,-0.030,-0.004,0.024,-0.021,0.025,-0.137,-0.184,-0.178,-0.119,-0.069
'0:01.281',0.025,-0.006,-0.031,-0.009,0.028,-0.019,0.019,-0.137,-0.187,-0.181,-0.112,-0.063
'0:01.282',0.019,-0.005,-0.024,-0.007,0.021,-0.014,0.022,-0.137,-0.184,-0.178,-0.112,-0.066
'0:01.283',0.016,0.000,-0.016,-0.007,0.016,-0.008,0.019,-0.137,-0.175,-0.169,-0.106,-0.063
'0:01.284',0.020,0.003,-0.017,-0.011,0.018,-0.007,0.019,-0.134,-0.169,-0.162,-0.100,-0.056
'0:01.285',0.019,0.006,-0.013,-0.013,0.016,-0.003,0.012,-0.131,-0.163,-0.156,-0.100,-0.056
'0:01.286',0.014,0.011,-0.004,-0.013,0.009,0.003,0.022,-0.128,-0.166,-0.156,-0.097,-0.056
'0:01.287',0.012,0.016,0.003,-0.014,0.004,0.009,0.025,-0.119,-0.163,-0.150,-0.094,-0.056
'0:01.288',0.011,0.017,0.006,-0.014,0.003,0.011,0.031,-0.112,-0.159,-0.150,-0.084,-0.047
'0:01.289',0.009,0.022,0.012,-0.016,-0.002,0.017,0.037,-0.106,-0.156,-0.144,-0.075,-0.044
'0:01.290',0.011,0.026,0.015,-0.019,-0.002,0.021,0.031,-0.103,-0.150,-0.141,-0.075,-0.041
'0:01.291',0.006,0.028,0.022,-0.017,-0.008,0.025,0.025,-0.100,-0.150,-0.144,-0.075,-0.038
'0:01.292',0.003,0.033,0.029,-0.018,-0.013,0.031,0.034,-0.112,-0.156,-0.153,-0.075,-0.038
'0:01.293',0.003,0.034,0.031,-0.019,-0.014,0.033,0.037,-0.125,-0.163,-0.162,-0.075,-0.031
'0:01.294',0.002,0.029,0.028,-0.016,-0.013,0.028,0.031,-0.128,-0.169,-0.153,-0.078,-0.034
'0:01.295',0.000,0.031,0.031,-0.016,-0.016,0.031,0.031,-0.131,-0.169,-0.156,-0.081,-0.038
'0:01.296',0.001,0.034,0.033,-0.018,-0.016,0.034,0.028,-0.134,-0.169,-0.159,-0.078,-0.034
'0:01.297',0.003,0.041,0.037,-0.022,-0.018,0.039,0.025,-0.137,-0.175,-0.162,-0.075,-0.031
'0:01.298',0.000,0.042,0.042,-0.021,-0.021,0.042,0.025,-0.141,-0.175,-0.156,-0.084,-0.041
'0:01.299',0.000,0.044,0.044,-0.022,-0.022,0.044,0.025,-0.144,-0.181,-0.156,-0.087,-0.044
'0:01.300',-0.001,0.038,0.039,-0.018,-0.020,0.038,0.022,-0.144,-0.184,-0.162,-0.087,-0.044
'0:01.301',-0.006,0.031,0.037,-0.013,-0.022,0.034,0.025,-0.150,-0.187,-0.162,-0.087,-0.044
'0:01.302',-0.011,0.016,0.026,-0.003,-0.019,0.021,0.025,-0.147,-0.181,-0.156,-0.087,-0.047
'0:01.303',-0.013,0.003,0.016,0.005,-0.014,0.009,0.025,-0.144,-0.181,-0.162,-0.087,-0.050
'0:01.304',-0.013,-0.006,0.006,0.009,-0.009,0.000,0.025,-0.144,-0.184,-0.166,-0.091,-0.050
'0:01.305',-0.016,-0.012,0.003,0.014,-0.009,-0.005,0.025,-0.144,-0.187,-0.169,-0.094,-0.050
'0:01.306',-0.011,-0.008,0.003,0.010,-0.008,-0.002,0.025,-0.147,-0.187,-0.169,-0.094,-0.056
'0:01.307',-0.009,-0.012,-0.003,0.011,-0.003,-0.008,0.025,-0.150,-0.187,-0.169,-0.100,-0.056
'0:01.308',-0.008,-0.019,-0.011,0.014,0.001,-0.015,0.022,-0.144,-0.191,-0.169,-0.097,-0.056
'0:01.309',-0.006,-0.025,-0.019,0.016,0.006,-0.022,0.019,-0.144,-0.187,-0.175,-0.100,-0.063
'0:01.310',-0.008,-0.028,-0.020,0.018,0.006,-0.024,0.022,-0.153,-0.194,-0.175,-0.103,-0.063
'0:01.311',-0.006,-0.034,-0.028,0.021,0.011,-0.031,0.019,-0.162,-0.200,-0.187,-0.112,-0.063
'0:01.312',-0.003,-0.037,-0.034,0.021,0.016,-0.036,0.016,-0.169,-0.209,-0.194,-0.116,-0.066
'0:01.313',0.003,-0.037,-0.041,0.018,0.022,-0.039,0.012,-0.169,-0.212,-0.194,-0.112,-0.063
'0:01.314',0.003,-0.041,-0.044,0.019,0.023,-0.042,0.012,-0.172,-0.212,-0.191,-0.112,-0.063
'0:01.315',-0.003,-0.037,-0.034,0.021,0.016,-0.036,0.012,-0.175,-0.212,-0.187,-0.112,-0.063
'0:01.316',-0.008,-0.039,-0.032,0.024,0.012,-0.036,0.016,-0.169,-0.212,-0.194,-0.112,-0.066
